Nov. 2, 2023   12:36:52
Cyclic Voltammetry
File: c:\users\dell\desktop\电化学数据\114514\blank0_1new.txt
Data Source:  Experiment
Instrument Model:  CHI600B
Header: 
Note: 

Init E (V) = -0.25
High E (V) = 1.25
Low E (V) = -0.3
Init P/N = P
Scan Rate (V/s) = 0.1
Segment = 8
Sample Interval (V) = 0.01
Quiet Time (sec) = 1
Sensitivity (A/V) = 1e-5

Segment 1:

Segment 2:
Ep = 0.390V
ip = 4.090e-6A
Ah = 3.485e-6C

Ep = -0.290V
ip = 2.435e-6A
Ah = 1.914e-6C

Segment 3:
Ep = -0.080V
ip = -2.860e-7A
Ah = -9.891e-8C

Segment 4:
Ep = 0.390V
ip = 4.399e-6A
Ah = 3.880e-6C

Ep = -0.290V
ip = 1.874e-6A
Ah = 1.667e-6C

Segment 5:

Segment 6:
Ep = 0.400V
ip = 4.426e-6A
Ah = 3.389e-6C

Ep = -0.290V
ip = 2.240e-6A
Ah = 1.894e-6C

Segment 7:

Segment 8:
Ep = 0.400V
ip = 4.557e-6A
Ah = 3.552e-6C

Potential/V, Current/A, Charge/C

Segment 1:
-0.240, -1.591e-6, -1.591e-7
-0.230, -1.640e-6, -3.230e-7
-0.220, -1.771e-6, -5.001e-7
-0.210, -1.861e-6, -6.862e-7
-0.200, -1.785e-6, -8.647e-7
-0.190, -1.715e-6, -1.036e-6
-0.180, -1.738e-6, -1.210e-6
-0.170, -1.709e-6, -1.381e-6
-0.160, -1.572e-6, -1.538e-6
-0.150, -1.525e-6, -1.691e-6
-0.140, -1.579e-6, -1.848e-6
-0.130, -1.555e-6, -2.004e-6
-0.120, -1.478e-6, -2.152e-6
-0.110, -1.487e-6, -2.301e-6
-0.100, -1.552e-6, -2.456e-6
-0.090, -1.562e-6, -2.612e-6
-0.080, -1.516e-6, -2.763e-6
-0.070, -1.529e-6, -2.916e-6
-0.060, -1.555e-6, -3.072e-6
-0.050, -1.469e-6, -3.219e-6
-0.040, -1.256e-6, -3.344e-6
-0.030, -1.034e-6, -3.448e-6
-0.020, -8.990e-7, -3.538e-6
-0.010, -8.036e-7, -3.618e-6
0.000, -7.068e-7, -3.689e-6
0.010, -6.224e-7, -3.751e-6
0.020, -5.759e-7, -3.809e-6
0.030, -5.522e-7, -3.864e-6
0.040, -5.213e-7, -3.916e-6
0.050, -4.855e-7, -3.964e-6
0.060, -4.721e-7, -4.012e-6
0.070, -4.661e-7, -4.058e-6
0.080, -4.660e-7, -4.105e-6
0.090, -4.501e-7, -4.150e-6
0.100, -4.449e-7, -4.194e-6
0.110, -4.443e-7, -4.239e-6
0.120, -4.529e-7, -4.284e-6
0.130, -4.500e-7, -4.329e-6
0.140, -4.497e-7, -4.374e-6
0.150, -4.480e-7, -4.419e-6
0.160, -4.516e-7, -4.464e-6
0.170, -4.532e-7, -4.509e-6
0.180, -4.538e-7, -4.555e-6
0.190, -4.518e-7, -4.600e-6
0.200, -4.553e-7, -4.645e-6
0.210, -4.572e-7, -4.691e-6
0.220, -4.646e-7, -4.738e-6
0.230, -4.599e-7, -4.784e-6
0.240, -4.640e-7, -4.830e-6
0.250, -4.762e-7, -4.878e-6
0.260, -4.912e-7, -4.927e-6
0.270, -4.946e-7, -4.976e-6
0.280, -4.934e-7, -5.026e-6
0.290, -5.023e-7, -5.076e-6
0.300, -5.129e-7, -5.127e-6
0.310, -5.309e-7, -5.180e-6
0.320, -5.381e-7, -5.234e-6
0.330, -5.483e-7, -5.289e-6
0.340, -5.565e-7, -5.344e-6
0.350, -5.868e-7, -5.403e-6
0.360, -5.943e-7, -5.463e-6
0.370, -6.026e-7, -5.523e-6
0.380, -6.137e-7, -5.584e-6
0.390, -6.469e-7, -5.649e-6
0.400, -6.704e-7, -5.716e-6
0.410, -6.883e-7, -5.785e-6
0.420, -7.085e-7, -5.856e-6
0.430, -7.449e-7, -5.930e-6
0.440, -7.895e-7, -6.009e-6
0.450, -8.244e-7, -6.091e-6
0.460, -8.585e-7, -6.177e-6
0.470, -9.068e-7, -6.268e-6
0.480, -9.852e-7, -6.367e-6
0.490, -1.065e-6, -6.473e-6
0.500, -1.145e-6, -6.588e-6
0.510, -1.228e-6, -6.710e-6
0.520, -1.337e-6, -6.844e-6
0.530, -1.452e-6, -6.989e-6
0.540, -1.536e-6, -7.143e-6
0.550, -1.600e-6, -7.303e-6
0.560, -1.656e-6, -7.468e-6
0.570, -1.742e-6, -7.643e-6
0.580, -1.813e-6, -7.824e-6
0.590, -1.865e-6, -8.010e-6
0.600, -1.907e-6, -8.201e-6
0.610, -1.987e-6, -8.400e-6
0.620, -2.064e-6, -8.606e-6
0.630, -2.123e-6, -8.818e-6
0.640, -2.153e-6, -9.034e-6
0.650, -2.186e-6, -9.252e-6
0.660, -2.251e-6, -9.477e-6
0.670, -2.314e-6, -9.709e-6
0.680, -2.344e-6, -9.943e-6
0.690, -2.355e-6, -1.018e-5
0.700, -2.392e-6, -1.042e-5
0.710, -2.458e-6, -1.066e-5
0.720, -2.497e-6, -1.091e-5
0.730, -2.513e-6, -1.116e-5
0.740, -2.528e-6, -1.142e-5
0.750, -2.574e-6, -1.167e-5
0.760, -2.621e-6, -1.194e-5
0.770, -2.652e-6, -1.220e-5
0.780, -2.668e-6, -1.247e-5
0.790, -2.705e-6, -1.274e-5
0.800, -2.761e-6, -1.302e-5
0.810, -2.809e-6, -1.330e-5
0.820, -2.833e-6, -1.358e-5
0.830, -2.869e-6, -1.387e-5
0.840, -2.931e-6, -1.416e-5
0.850, -2.988e-6, -1.446e-5
0.860, -3.040e-6, -1.476e-5
0.870, -3.079e-6, -1.507e-5
0.880, -3.135e-6, -1.538e-5
0.890, -3.200e-6, -1.570e-5
0.900, -3.268e-6, -1.603e-5
0.910, -3.317e-6, -1.636e-5
0.920, -3.364e-6, -1.670e-5
0.930, -3.434e-6, -1.704e-5
0.940, -3.517e-6, -1.739e-5
0.950, -3.570e-6, -1.775e-5
0.960, -3.619e-6, -1.811e-5
0.970, -3.680e-6, -1.848e-5
0.980, -3.747e-6, -1.886e-5
0.990, -3.814e-6, -1.924e-5
1.000, -3.860e-6, -1.962e-5
1.010, -3.898e-6, -2.001e-5
1.020, -3.958e-6, -2.041e-5
1.030, -4.015e-6, -2.081e-5
1.040, -4.057e-6, -2.122e-5
1.050, -4.081e-6, -2.162e-5
1.060, -4.109e-6, -2.203e-5
1.070, -4.144e-6, -2.245e-5
1.080, -4.177e-6, -2.287e-5
1.090, -4.192e-6, -2.329e-5
1.100, -4.192e-6, -2.371e-5
1.110, -4.214e-6, -2.413e-5
1.120, -4.241e-6, -2.455e-5
1.130, -4.255e-6, -2.498e-5
1.140, -4.258e-6, -2.540e-5
1.150, -4.263e-6, -2.583e-5
1.160, -4.292e-6, -2.626e-5
1.170, -4.324e-6, -2.669e-5
1.180, -4.351e-6, -2.712e-5
1.190, -4.380e-6, -2.756e-5
1.200, -4.436e-6, -2.801e-5
1.210, -4.514e-6, -2.846e-5
1.220, -4.614e-6, -2.892e-5
1.230, -4.717e-6, -2.939e-5
1.240, -4.848e-6, -2.988e-5

Segment 2:
1.250, -4.221e-6, -3.030e-5
1.240, -3.071e-6, -3.061e-5
1.230, -2.346e-6, -3.084e-5
1.220, -1.842e-6, -3.102e-5
1.210, -1.492e-6, -3.117e-5
1.200, -1.242e-6, -3.130e-5
1.190, -1.058e-6, -3.140e-5
1.180, -9.110e-7, -3.149e-5
1.170, -7.913e-7, -3.157e-5
1.160, -6.935e-7, -3.164e-5
1.150, -6.248e-7, -3.171e-5
1.140, -5.742e-7, -3.176e-5
1.130, -5.088e-7, -3.181e-5
1.120, -4.606e-7, -3.186e-5
1.110, -4.247e-7, -3.190e-5
1.100, -3.997e-7, -3.194e-5
1.090, -3.747e-7, -3.198e-5
1.080, -3.344e-7, -3.201e-5
1.070, -2.305e-7, -3.204e-5
1.060, -2.015e-7, -3.206e-5
1.050, -1.891e-7, -3.207e-5
1.040, -1.642e-7, -3.209e-5
1.030, -1.429e-7, -3.211e-5
1.020, -1.227e-7, -3.212e-5
1.010, -1.138e-7, -3.213e-5
1.000, -1.056e-7, -3.214e-5
0.990, -7.693e-8, -3.215e-5
0.980, -6.328e-8, -3.215e-5
0.970, -5.120e-8, -3.216e-5
0.960, -4.794e-8, -3.216e-5
0.950, -2.842e-8, -3.217e-5
0.940, -7.911e-9, -3.217e-5
0.930, 1.154e-8, -3.217e-5
0.920, 1.480e-8, -3.216e-5
0.910, 2.723e-8, -3.216e-5
0.900, 4.077e-8, -3.216e-5
0.890, 6.621e-8, -3.215e-5
0.880, 7.372e-8, -3.214e-5
0.870, 8.356e-8, -3.214e-5
0.860, 9.598e-8, -3.213e-5
0.850, 1.248e-7, -3.211e-5
0.840, 1.371e-7, -3.210e-5
0.830, 1.500e-7, -3.208e-5
0.820, 1.570e-7, -3.207e-5
0.810, 1.832e-7, -3.205e-5
0.800, 2.115e-7, -3.203e-5
0.790, 2.245e-7, -3.201e-5
0.780, 2.383e-7, -3.198e-5
0.770, 2.570e-7, -3.196e-5
0.760, 2.903e-7, -3.193e-5
0.750, 3.214e-7, -3.190e-5
0.740, 3.373e-7, -3.186e-5
0.730, 3.562e-7, -3.183e-5
0.720, 3.896e-7, -3.179e-5
0.710, 4.306e-7, -3.175e-5
0.700, 4.633e-7, -3.170e-5
0.690, 4.881e-7, -3.165e-5
0.680, 5.235e-7, -3.160e-5
0.670, 5.745e-7, -3.154e-5
0.660, 6.214e-7, -3.148e-5
0.650, 6.636e-7, -3.141e-5
0.640, 7.031e-7, -3.134e-5
0.630, 7.663e-7, -3.126e-5
0.620, 8.387e-7, -3.118e-5
0.610, 9.046e-7, -3.109e-5
0.600, 9.636e-7, -3.099e-5
0.590, 1.037e-6, -3.089e-5
0.580, 1.144e-6, -3.078e-5
0.570, 1.269e-6, -3.065e-5
0.560, 1.370e-6, -3.051e-5
0.550, 1.482e-6, -3.036e-5
0.540, 1.626e-6, -3.020e-5
0.530, 1.804e-6, -3.002e-5
0.520, 1.985e-6, -2.982e-5
0.510, 2.180e-6, -2.960e-5
0.500, 2.413e-6, -2.936e-5
0.490, 2.698e-6, -2.909e-5
0.480, 3.022e-6, -2.879e-5
0.470, 3.351e-6, -2.846e-5
0.460, 3.725e-6, -2.808e-5
0.450, 4.152e-6, -2.767e-5
0.440, 4.635e-6, -2.720e-5
0.430, 5.073e-6, -2.670e-5
0.420, 5.462e-6, -2.615e-5
0.410, 5.801e-6, -2.557e-5
0.400, 6.052e-6, -2.497e-5
0.390, 6.136e-6, -2.435e-5
0.380, 6.028e-6, -2.375e-5
0.370, 5.749e-6, -2.317e-5
0.360, 5.365e-6, -2.264e-5
0.350, 4.898e-6, -2.215e-5
0.340, 4.365e-6, -2.171e-5
0.330, 3.815e-6, -2.133e-5
0.320, 3.321e-6, -2.100e-5
0.310, 2.893e-6, -2.071e-5
0.300, 2.519e-6, -2.046e-5
0.290, 2.194e-6, -2.024e-5
0.280, 1.909e-6, -2.005e-5
0.270, 1.677e-6, -1.988e-5
0.260, 1.489e-6, -1.973e-5
0.250, 1.337e-6, -1.960e-5
0.240, 1.190e-6, -1.948e-5
0.230, 1.059e-6, -1.937e-5
0.220, 9.617e-7, -1.928e-5
0.210, 8.882e-7, -1.919e-5
0.200, 8.175e-7, -1.910e-5
0.190, 7.618e-7, -1.903e-5
0.180, 6.985e-7, -1.896e-5
0.170, 6.577e-7, -1.889e-5
0.160, 6.310e-7, -1.883e-5
0.150, 6.078e-7, -1.877e-5
0.140, 5.728e-7, -1.871e-5
0.130, 5.468e-7, -1.866e-5
0.120, 5.382e-7, -1.860e-5
0.110, 5.298e-7, -1.855e-5
0.100, 5.187e-7, -1.850e-5
0.090, 5.109e-7, -1.845e-5
0.080, 5.049e-7, -1.840e-5
0.070, 5.171e-7, -1.834e-5
0.060, 5.210e-7, -1.829e-5
0.050, 5.283e-7, -1.824e-5
0.040, 5.324e-7, -1.819e-5
0.030, 5.614e-7, -1.813e-5
0.020, 6.062e-7, -1.807e-5
0.010, 6.432e-7, -1.801e-5
0.000, 6.831e-7, -1.794e-5
-0.010, 7.520e-7, -1.786e-5
-0.020, 8.653e-7, -1.778e-5
-0.030, 1.015e-6, -1.767e-5
-0.040, 1.166e-6, -1.756e-5
-0.050, 1.332e-6, -1.742e-5
-0.060, 1.541e-6, -1.727e-5
-0.070, 1.776e-6, -1.709e-5
-0.080, 1.929e-6, -1.690e-5
-0.090, 1.984e-6, -1.670e-5
-0.100, 2.041e-6, -1.650e-5
-0.110, 2.180e-6, -1.628e-5
-0.120, 2.255e-6, -1.605e-5
-0.130, 2.230e-6, -1.583e-5
-0.140, 2.191e-6, -1.561e-5
-0.150, 2.265e-6, -1.539e-5
-0.160, 2.459e-6, -1.514e-5
-0.170, 2.650e-6, -1.487e-5
-0.180, 2.771e-6, -1.460e-5
-0.190, 2.990e-6, -1.430e-5
-0.200, 3.313e-6, -1.397e-5
-0.210, 3.647e-6, -1.360e-5
-0.220, 3.831e-6, -1.322e-5
-0.230, 3.852e-6, -1.283e-5
-0.240, 3.991e-6, -1.243e-5
-0.250, 4.212e-6, -1.201e-5
-0.260, 4.351e-6, -1.158e-5
-0.270, 4.373e-6, -1.114e-5
-0.280, 4.468e-6, -1.069e-5
-0.290, 4.833e-6, -1.021e-5
-0.300, 1.501e-6, -1.006e-5

Segment 3:
-0.290, -6.719e-7, -1.013e-5
-0.280, -1.432e-6, -1.027e-5
-0.270, -1.817e-6, -1.045e-5
-0.260, -1.986e-6, -1.065e-5
-0.250, -2.112e-6, -1.086e-5
-0.240, -2.316e-6, -1.109e-5
-0.230, -2.476e-6, -1.134e-5
-0.220, -2.446e-6, -1.159e-5
-0.210, -2.285e-6, -1.182e-5
-0.200, -2.213e-6, -1.204e-5
-0.190, -2.233e-6, -1.226e-5
-0.180, -2.168e-6, -1.248e-5
-0.170, -1.994e-6, -1.268e-5
-0.160, -1.838e-6, -1.286e-5
-0.150, -1.835e-6, -1.304e-5
-0.140, -1.929e-6, -1.324e-5
-0.130, -1.955e-6, -1.343e-5
-0.120, -1.904e-6, -1.362e-5
-0.110, -1.885e-6, -1.381e-5
-0.100, -1.973e-6, -1.401e-5
-0.090, -2.094e-6, -1.422e-5
-0.080, -2.131e-6, -1.443e-5
-0.070, -2.109e-6, -1.464e-5
-0.060, -2.066e-6, -1.485e-5
-0.050, -1.912e-6, -1.504e-5
-0.040, -1.571e-6, -1.520e-5
-0.030, -1.180e-6, -1.531e-5
-0.020, -9.123e-7, -1.541e-5
-0.010, -7.690e-7, -1.548e-5
-0.000, -6.774e-7, -1.555e-5
0.010, -5.848e-7, -1.561e-5
0.020, -5.026e-7, -1.566e-5
0.030, -4.537e-7, -1.570e-5
0.040, -4.302e-7, -1.575e-5
0.050, -4.103e-7, -1.579e-5
0.060, -3.906e-7, -1.583e-5
0.070, -3.648e-7, -1.586e-5
0.080, -3.624e-7, -1.590e-5
0.090, -3.626e-7, -1.594e-5
0.100, -3.617e-7, -1.597e-5
0.110, -3.512e-7, -1.601e-5
0.120, -3.446e-7, -1.604e-5
0.130, -3.499e-7, -1.608e-5
0.140, -3.608e-7, -1.611e-5
0.150, -3.604e-7, -1.615e-5
0.160, -3.531e-7, -1.618e-5
0.170, -3.558e-7, -1.622e-5
0.180, -3.656e-7, -1.626e-5
0.190, -3.735e-7, -1.629e-5
0.200, -3.733e-7, -1.633e-5
0.210, -3.678e-7, -1.637e-5
0.220, -3.773e-7, -1.641e-5
0.230, -3.906e-7, -1.644e-5
0.240, -3.921e-7, -1.648e-5
0.250, -3.900e-7, -1.652e-5
0.260, -3.974e-7, -1.656e-5
0.270, -4.020e-7, -1.660e-5
0.280, -4.073e-7, -1.664e-5
0.290, -4.101e-7, -1.668e-5
0.300, -4.091e-7, -1.673e-5
0.310, -4.213e-7, -1.677e-5
0.320, -4.407e-7, -1.681e-5
0.330, -4.464e-7, -1.686e-5
0.340, -4.498e-7, -1.690e-5
0.350, -4.563e-7, -1.695e-5
0.360, -4.802e-7, -1.700e-5
0.370, -5.024e-7, -1.705e-5
0.380, -5.157e-7, -1.710e-5
0.390, -5.244e-7, -1.715e-5
0.400, -5.523e-7, -1.720e-5
0.410, -5.863e-7, -1.726e-5
0.420, -6.108e-7, -1.732e-5
0.430, -6.252e-7, -1.739e-5
0.440, -6.569e-7, -1.745e-5
0.450, -7.132e-7, -1.752e-5
0.460, -7.761e-7, -1.760e-5
0.470, -8.330e-7, -1.768e-5
0.480, -8.926e-7, -1.777e-5
0.490, -9.970e-7, -1.787e-5
0.500, -1.142e-6, -1.799e-5
0.510, -1.283e-6, -1.812e-5
0.520, -1.401e-6, -1.826e-5
0.530, -1.510e-6, -1.841e-5
0.540, -1.643e-6, -1.857e-5
0.550, -1.754e-6, -1.875e-5
0.560, -1.810e-6, -1.893e-5
0.570, -1.843e-6, -1.911e-5
0.580, -1.908e-6, -1.930e-5
0.590, -1.995e-6, -1.950e-5
0.600, -2.048e-6, -1.971e-5
0.610, -2.068e-6, -1.991e-5
0.620, -2.086e-6, -2.012e-5
0.630, -2.135e-6, -2.034e-5
0.640, -2.179e-6, -2.055e-5
0.650, -2.197e-6, -2.077e-5
0.660, -2.192e-6, -2.099e-5
0.670, -2.211e-6, -2.121e-5
0.680, -2.258e-6, -2.144e-5
0.690, -2.281e-6, -2.167e-5
0.700, -2.278e-6, -2.190e-5
0.710, -2.274e-6, -2.212e-5
0.720, -2.303e-6, -2.235e-5
0.730, -2.338e-6, -2.259e-5
0.740, -2.343e-6, -2.282e-5
0.750, -2.330e-6, -2.305e-5
0.760, -2.342e-6, -2.329e-5
0.770, -2.375e-6, -2.353e-5
0.780, -2.399e-6, -2.377e-5
0.790, -2.399e-6, -2.401e-5
0.800, -2.403e-6, -2.425e-5
0.810, -2.433e-6, -2.449e-5
0.820, -2.474e-6, -2.474e-5
0.830, -2.506e-6, -2.499e-5
0.840, -2.516e-6, -2.524e-5
0.850, -2.541e-6, -2.549e-5
0.860, -2.583e-6, -2.575e-5
0.870, -2.630e-6, -2.601e-5
0.880, -2.654e-6, -2.628e-5
0.890, -2.672e-6, -2.655e-5
0.900, -2.712e-6, -2.682e-5
0.910, -2.760e-6, -2.709e-5
0.920, -2.795e-6, -2.737e-5
0.930, -2.814e-6, -2.766e-5
0.940, -2.836e-6, -2.794e-5
0.950, -2.876e-6, -2.823e-5
0.960, -2.922e-6, -2.852e-5
0.970, -2.938e-6, -2.881e-5
0.980, -2.953e-6, -2.911e-5
0.990, -2.976e-6, -2.941e-5
1.000, -3.013e-6, -2.971e-5
1.010, -3.039e-6, -3.001e-5
1.020, -3.052e-6, -3.032e-5
1.030, -3.059e-6, -3.062e-5
1.040, -3.089e-6, -3.093e-5
1.050, -3.115e-6, -3.124e-5
1.060, -3.125e-6, -3.155e-5
1.070, -3.128e-6, -3.187e-5
1.080, -3.142e-6, -3.218e-5
1.090, -3.170e-6, -3.250e-5
1.100, -3.190e-6, -3.282e-5
1.110, -3.203e-6, -3.314e-5
1.120, -3.212e-6, -3.346e-5
1.130, -3.247e-6, -3.378e-5
1.140, -3.291e-6, -3.411e-5
1.150, -3.321e-6, -3.444e-5
1.160, -3.355e-6, -3.478e-5
1.170, -3.403e-6, -3.512e-5
1.180, -3.483e-6, -3.547e-5
1.190, -3.570e-6, -3.583e-5
1.200, -3.657e-6, -3.619e-5
1.210, -3.759e-6, -3.657e-5
1.220, -3.857e-6, -3.695e-5
1.230, -4.085e-6, -3.736e-5
1.240, -4.285e-6, -3.779e-5
1.250, -3.686e-6, -3.816e-5

Segment 4:
1.240, -2.623e-6, -3.842e-5
1.230, -1.985e-6, -3.862e-5
1.220, -1.558e-6, -3.878e-5
1.210, -1.262e-6, -3.890e-5
1.200, -1.035e-6, -3.901e-5
1.190, -8.697e-7, -3.909e-5
1.180, -7.537e-7, -3.917e-5
1.170, -6.629e-7, -3.923e-5
1.160, -5.899e-7, -3.929e-5
1.150, -5.110e-7, -3.934e-5
1.140, -4.657e-7, -3.939e-5
1.130, -4.304e-7, -3.943e-5
1.120, -4.001e-7, -3.947e-5
1.110, -3.573e-7, -3.951e-5
1.100, -2.644e-7, -3.954e-5
1.090, -2.275e-7, -3.956e-5
1.080, -1.965e-7, -3.958e-5
1.070, -1.682e-7, -3.959e-5
1.060, -1.461e-7, -3.961e-5
1.050, -1.250e-7, -3.962e-5
1.040, -1.153e-7, -3.963e-5
1.030, -1.065e-7, -3.964e-5
1.020, -7.806e-8, -3.965e-5
1.010, -6.260e-8, -3.966e-5
1.000, -4.940e-8, -3.966e-5
0.990, -4.534e-8, -3.967e-5
0.980, -2.400e-8, -3.967e-5
0.970, -3.149e-9, -3.967e-5
0.960, 1.578e-8, -3.967e-5
0.950, 1.407e-8, -3.967e-5
0.940, 2.891e-8, -3.966e-5
0.930, 4.161e-8, -3.966e-5
0.920, 6.611e-8, -3.965e-5
0.910, 7.237e-8, -3.965e-5
0.900, 8.078e-8, -3.964e-5
0.890, 9.053e-8, -3.963e-5
0.880, 1.201e-7, -3.962e-5
0.870, 1.332e-7, -3.960e-5
0.860, 1.442e-7, -3.959e-5
0.850, 1.490e-7, -3.957e-5
0.840, 1.768e-7, -3.956e-5
0.830, 2.001e-7, -3.954e-5
0.820, 2.120e-7, -3.952e-5
0.810, 2.217e-7, -3.949e-5
0.800, 2.369e-7, -3.947e-5
0.790, 2.715e-7, -3.944e-5
0.780, 2.963e-7, -3.941e-5
0.770, 3.096e-7, -3.938e-5
0.760, 3.257e-7, -3.935e-5
0.750, 3.572e-7, -3.931e-5
0.740, 3.920e-7, -3.927e-5
0.730, 4.177e-7, -3.923e-5
0.720, 4.383e-7, -3.919e-5
0.710, 4.693e-7, -3.914e-5
0.700, 5.163e-7, -3.909e-5
0.690, 5.565e-7, -3.903e-5
0.680, 5.862e-7, -3.898e-5
0.670, 6.218e-7, -3.891e-5
0.660, 6.715e-7, -3.885e-5
0.650, 7.315e-7, -3.877e-5
0.640, 7.843e-7, -3.870e-5
0.630, 8.302e-7, -3.861e-5
0.620, 8.935e-7, -3.852e-5
0.610, 9.729e-7, -3.843e-5
0.600, 1.061e-6, -3.832e-5
0.590, 1.127e-6, -3.821e-5
0.580, 1.235e-6, -3.808e-5
0.570, 1.355e-6, -3.795e-5
0.560, 1.483e-6, -3.780e-5
0.550, 1.617e-6, -3.764e-5
0.540, 1.753e-6, -3.746e-5
0.530, 1.925e-6, -3.727e-5
0.520, 2.148e-6, -3.706e-5
0.510, 2.383e-6, -3.682e-5
0.500, 2.631e-6, -3.655e-5
0.490, 2.921e-6, -3.626e-5
0.480, 3.278e-6, -3.593e-5
0.470, 3.687e-6, -3.557e-5
0.460, 4.115e-6, -3.515e-5
0.450, 4.576e-6, -3.470e-5
0.440, 5.069e-6, -3.419e-5
0.430, 5.578e-6, -3.363e-5
0.420, 6.017e-6, -3.303e-5
0.410, 6.332e-6, -3.240e-5
0.400, 6.511e-6, -3.175e-5
0.390, 6.539e-6, -3.109e-5
0.380, 6.360e-6, -3.046e-5
0.370, 5.985e-6, -2.986e-5
0.360, 5.457e-6, -2.931e-5
0.350, 4.878e-6, -2.882e-5
0.340, 4.291e-6, -2.839e-5
0.330, 3.722e-6, -2.802e-5
0.320, 3.197e-6, -2.770e-5
0.310, 2.746e-6, -2.743e-5
0.300, 2.375e-6, -2.719e-5
0.290, 2.071e-6, -2.698e-5
0.280, 1.810e-6, -2.680e-5
0.270, 1.591e-6, -2.664e-5
0.260, 1.407e-6, -2.650e-5
0.250, 1.265e-6, -2.638e-5
0.240, 1.131e-6, -2.626e-5
0.230, 1.023e-6, -2.616e-5
0.220, 9.276e-7, -2.607e-5
0.210, 8.512e-7, -2.598e-5
0.200, 7.950e-7, -2.590e-5
0.190, 7.517e-7, -2.583e-5
0.180, 7.057e-7, -2.576e-5
0.170, 6.587e-7, -2.569e-5
0.160, 6.273e-7, -2.563e-5
0.150, 6.102e-7, -2.557e-5
0.140, 5.939e-7, -2.551e-5
0.130, 5.700e-7, -2.545e-5
0.120, 5.533e-7, -2.540e-5
0.110, 5.482e-7, -2.534e-5
0.100, 5.486e-7, -2.529e-5
0.090, 5.438e-7, -2.523e-5
0.080, 5.326e-7, -2.518e-5
0.070, 5.320e-7, -2.513e-5
0.060, 5.486e-7, -2.507e-5
0.050, 5.675e-7, -2.501e-5
0.040, 5.773e-7, -2.496e-5
0.030, 5.883e-7, -2.490e-5
0.020, 6.246e-7, -2.484e-5
0.010, 6.859e-7, -2.477e-5
0.000, 7.472e-7, -2.469e-5
-0.010, 8.053e-7, -2.461e-5
-0.020, 8.959e-7, -2.452e-5
-0.030, 1.068e-6, -2.441e-5
-0.040, 1.307e-6, -2.428e-5
-0.050, 1.503e-6, -2.413e-5
-0.060, 1.660e-6, -2.397e-5
-0.070, 1.847e-6, -2.378e-5
-0.080, 2.070e-6, -2.358e-5
-0.090, 2.202e-6, -2.336e-5
-0.100, 2.201e-6, -2.314e-5
-0.110, 2.200e-6, -2.292e-5
-0.120, 2.258e-6, -2.269e-5
-0.130, 2.323e-6, -2.246e-5
-0.140, 2.344e-6, -2.222e-5
-0.150, 2.331e-6, -2.199e-5
-0.160, 2.444e-6, -2.175e-5
-0.170, 2.699e-6, -2.148e-5
-0.180, 2.975e-6, -2.118e-5
-0.190, 3.169e-6, -2.086e-5
-0.200, 3.368e-6, -2.052e-5
-0.210, 3.648e-6, -2.016e-5
-0.220, 3.976e-6, -1.976e-5
-0.230, 4.077e-6, -1.935e-5
-0.240, 4.031e-6, -1.895e-5
-0.250, 4.065e-6, -1.855e-5
-0.260, 4.256e-6, -1.812e-5
-0.270, 4.392e-6, -1.768e-5
-0.280, 4.408e-6, -1.724e-5
-0.290, 4.611e-6, -1.678e-5
-0.300, 1.205e-6, -1.666e-5

Segment 5:
-0.290, -7.088e-7, -1.673e-5
-0.280, -1.381e-6, -1.687e-5
-0.270, -1.869e-6, -1.705e-5
-0.260, -2.185e-6, -1.727e-5
-0.250, -2.283e-6, -1.750e-5
-0.240, -2.335e-6, -1.773e-5
-0.230, -2.450e-6, -1.798e-5
-0.220, -2.545e-6, -1.823e-5
-0.210, -2.482e-6, -1.848e-5
-0.200, -2.302e-6, -1.871e-5
-0.190, -2.193e-6, -1.893e-5
-0.180, -2.137e-6, -1.914e-5
-0.170, -2.077e-6, -1.935e-5
-0.160, -1.928e-6, -1.955e-5
-0.150, -1.808e-6, -1.973e-5
-0.140, -1.848e-6, -1.991e-5
-0.130, -1.980e-6, -2.011e-5
-0.120, -2.039e-6, -2.031e-5
-0.110, -1.967e-6, -2.051e-5
-0.100, -1.942e-6, -2.070e-5
-0.090, -2.085e-6, -2.091e-5
-0.080, -2.281e-6, -2.114e-5
-0.070, -2.342e-6, -2.137e-5
-0.060, -2.184e-6, -2.159e-5
-0.050, -1.912e-6, -2.178e-5
-0.040, -1.588e-6, -2.194e-5
-0.030, -1.223e-6, -2.207e-5
-0.020, -9.147e-7, -2.216e-5
-0.010, -7.191e-7, -2.223e-5
-0.000, -6.215e-7, -2.229e-5
0.010, -5.556e-7, -2.235e-5
0.020, -4.939e-7, -2.240e-5
0.030, -4.294e-7, -2.244e-5
0.040, -3.913e-7, -2.248e-5
0.050, -3.767e-7, -2.252e-5
0.060, -3.658e-7, -2.255e-5
0.070, -3.298e-7, -2.259e-5
0.080, -2.873e-7, -2.261e-5
0.090, -2.721e-7, -2.264e-5
0.100, -3.083e-7, -2.267e-5
0.110, -3.131e-7, -2.270e-5
0.120, -2.809e-7, -2.273e-5
0.130, -2.701e-7, -2.276e-5
0.140, -3.030e-7, -2.279e-5
0.150, -3.289e-7, -2.282e-5
0.160, -3.189e-7, -2.285e-5
0.170, -3.033e-7, -2.288e-5
0.180, -3.201e-7, -2.292e-5
0.190, -3.470e-7, -2.295e-5
0.200, -3.555e-7, -2.299e-5
0.210, -3.395e-7, -2.302e-5
0.220, -3.468e-7, -2.305e-5
0.230, -3.575e-7, -2.309e-5
0.240, -3.726e-7, -2.313e-5
0.250, -3.752e-7, -2.317e-5
0.260, -3.672e-7, -2.320e-5
0.270, -3.707e-7, -2.324e-5
0.280, -3.914e-7, -2.328e-5
0.290, -3.997e-7, -2.332e-5
0.300, -3.984e-7, -2.336e-5
0.310, -4.008e-7, -2.340e-5
0.320, -4.056e-7, -2.344e-5
0.330, -4.154e-7, -2.348e-5
0.340, -4.276e-7, -2.352e-5
0.350, -4.291e-7, -2.357e-5
0.360, -4.431e-7, -2.361e-5
0.370, -4.574e-7, -2.366e-5
0.380, -4.845e-7, -2.370e-5
0.390, -4.925e-7, -2.375e-5
0.400, -5.048e-7, -2.380e-5
0.410, -5.311e-7, -2.386e-5
0.420, -5.659e-7, -2.391e-5
0.430, -5.919e-7, -2.397e-5
0.440, -6.164e-7, -2.403e-5
0.450, -6.511e-7, -2.410e-5
0.460, -7.128e-7, -2.417e-5
0.470, -7.890e-7, -2.425e-5
0.480, -8.662e-7, -2.434e-5
0.490, -9.554e-7, -2.443e-5
0.500, -1.093e-6, -2.454e-5
0.510, -1.279e-6, -2.467e-5
0.520, -1.446e-6, -2.481e-5
0.530, -1.564e-6, -2.497e-5
0.540, -1.671e-6, -2.514e-5
0.550, -1.795e-6, -2.532e-5
0.560, -1.890e-6, -2.551e-5
0.570, -1.932e-6, -2.570e-5
0.580, -1.953e-6, -2.589e-5
0.590, -2.008e-6, -2.609e-5
0.600, -2.080e-6, -2.630e-5
0.610, -2.125e-6, -2.652e-5
0.620, -2.119e-6, -2.673e-5
0.630, -2.133e-6, -2.694e-5
0.640, -2.174e-6, -2.716e-5
0.650, -2.211e-6, -2.738e-5
0.660, -2.219e-6, -2.760e-5
0.670, -2.202e-6, -2.782e-5
0.680, -2.219e-6, -2.804e-5
0.690, -2.255e-6, -2.827e-5
0.700, -2.272e-6, -2.850e-5
0.710, -2.263e-6, -2.872e-5
0.720, -2.253e-6, -2.895e-5
0.730, -2.280e-6, -2.918e-5
0.740, -2.303e-6, -2.941e-5
0.750, -2.306e-6, -2.964e-5
0.760, -2.288e-6, -2.987e-5
0.770, -2.298e-6, -3.010e-5
0.780, -2.330e-6, -3.033e-5
0.790, -2.351e-6, -3.056e-5
0.800, -2.352e-6, -3.080e-5
0.810, -2.352e-6, -3.103e-5
0.820, -2.376e-6, -3.127e-5
0.830, -2.417e-6, -3.151e-5
0.840, -2.439e-6, -3.176e-5
0.850, -2.450e-6, -3.200e-5
0.860, -2.470e-6, -3.225e-5
0.870, -2.520e-6, -3.250e-5
0.880, -2.559e-6, -3.276e-5
0.890, -2.576e-6, -3.301e-5
0.900, -2.589e-6, -3.327e-5
0.910, -2.622e-6, -3.354e-5
0.920, -2.669e-6, -3.380e-5
0.930, -2.703e-6, -3.407e-5
0.940, -2.714e-6, -3.434e-5
0.950, -2.732e-6, -3.462e-5
0.960, -2.769e-6, -3.489e-5
0.970, -2.801e-6, -3.517e-5
0.980, -2.818e-6, -3.546e-5
0.990, -2.825e-6, -3.574e-5
1.000, -2.843e-6, -3.602e-5
1.010, -2.881e-6, -3.631e-5
1.020, -2.909e-6, -3.660e-5
1.030, -2.911e-6, -3.689e-5
1.040, -2.917e-6, -3.718e-5
1.050, -2.936e-6, -3.748e-5
1.060, -2.964e-6, -3.777e-5
1.070, -2.974e-6, -3.807e-5
1.080, -2.978e-6, -3.837e-5
1.090, -2.992e-6, -3.867e-5
1.100, -3.020e-6, -3.897e-5
1.110, -3.047e-6, -3.928e-5
1.120, -3.061e-6, -3.958e-5
1.130, -3.084e-6, -3.989e-5
1.140, -3.127e-6, -4.020e-5
1.150, -3.174e-6, -4.052e-5
1.160, -3.217e-6, -4.084e-5
1.170, -3.262e-6, -4.117e-5
1.180, -3.333e-6, -4.150e-5
1.190, -3.428e-6, -4.184e-5
1.200, -3.529e-6, -4.220e-5
1.210, -3.640e-6, -4.256e-5
1.220, -3.769e-6, -4.294e-5
1.230, -3.942e-6, -4.333e-5
1.240, -4.167e-6, -4.375e-5
1.250, -3.589e-6, -4.411e-5

Segment 6:
1.240, -2.535e-6, -4.436e-5
1.230, -1.904e-6, -4.455e-5
1.220, -1.494e-6, -4.470e-5
1.210, -1.217e-6, -4.482e-5
1.200, -1.004e-6, -4.492e-5
1.190, -8.383e-7, -4.501e-5
1.180, -7.179e-7, -4.508e-5
1.170, -6.326e-7, -4.514e-5
1.160, -5.702e-7, -4.520e-5
1.150, -5.023e-7, -4.525e-5
1.140, -4.478e-7, -4.529e-5
1.130, -4.062e-7, -4.533e-5
1.120, -3.797e-7, -4.537e-5
1.110, -3.436e-7, -4.541e-5
1.100, -2.316e-7, -4.543e-5
1.090, -1.905e-7, -4.545e-5
1.080, -1.739e-7, -4.547e-5
1.070, -1.590e-7, -4.548e-5
1.060, -1.415e-7, -4.550e-5
1.050, -1.123e-7, -4.551e-5
1.040, -9.467e-8, -4.552e-5
1.030, -8.625e-8, -4.553e-5
1.020, -7.350e-8, -4.553e-5
1.010, -5.656e-8, -4.554e-5
1.000, -3.153e-8, -4.554e-5
0.990, -2.111e-8, -4.554e-5
0.980, -1.411e-8, -4.555e-5
0.970, -5.937e-10, -4.555e-5
0.960, 2.561e-8, -4.554e-5
0.950, 3.577e-8, -4.554e-5
0.940, 4.229e-8, -4.554e-5
0.930, 4.511e-8, -4.553e-5
0.920, 6.817e-8, -4.552e-5
0.910, 8.977e-8, -4.552e-5
0.900, 1.017e-7, -4.550e-5
0.890, 1.072e-7, -4.549e-5
0.880, 1.219e-7, -4.548e-5
0.870, 1.433e-7, -4.547e-5
0.860, 1.669e-7, -4.545e-5
0.850, 1.705e-7, -4.543e-5
0.840, 1.829e-7, -4.542e-5
0.830, 2.033e-7, -4.540e-5
0.820, 2.303e-7, -4.537e-5
0.810, 2.482e-7, -4.535e-5
0.800, 2.539e-7, -4.532e-5
0.790, 2.743e-7, -4.529e-5
0.780, 3.087e-7, -4.526e-5
0.770, 3.304e-7, -4.523e-5
0.760, 3.513e-7, -4.520e-5
0.750, 3.653e-7, -4.516e-5
0.740, 3.955e-7, -4.512e-5
0.730, 4.346e-7, -4.508e-5
0.720, 4.666e-7, -4.503e-5
0.710, 4.899e-7, -4.498e-5
0.700, 5.196e-7, -4.493e-5
0.690, 5.664e-7, -4.487e-5
0.680, 6.133e-7, -4.481e-5
0.670, 6.459e-7, -4.475e-5
0.660, 6.820e-7, -4.468e-5
0.650, 7.345e-7, -4.460e-5
0.640, 8.055e-7, -4.452e-5
0.630, 8.650e-7, -4.444e-5
0.620, 9.168e-7, -4.435e-5
0.610, 9.789e-7, -4.425e-5
0.600, 1.071e-6, -4.414e-5
0.590, 1.173e-6, -4.402e-5
0.580, 1.273e-6, -4.390e-5
0.570, 1.370e-6, -4.376e-5
0.560, 1.498e-6, -4.361e-5
0.550, 1.651e-6, -4.344e-5
0.540, 1.807e-6, -4.326e-5
0.530, 1.970e-6, -4.307e-5
0.520, 2.170e-6, -4.285e-5
0.510, 2.424e-6, -4.261e-5
0.500, 2.709e-6, -4.234e-5
0.490, 3.006e-6, -4.204e-5
0.480, 3.343e-6, -4.170e-5
0.470, 3.756e-6, -4.133e-5
0.460, 4.232e-6, -4.090e-5
0.450, 4.730e-6, -4.043e-5
0.440, 5.210e-6, -3.991e-5
0.430, 5.695e-6, -3.934e-5
0.420, 6.164e-6, -3.872e-5
0.410, 6.516e-6, -3.807e-5
0.400, 6.671e-6, -3.740e-5
0.390, 6.633e-6, -3.674e-5
0.380, 6.406e-6, -3.610e-5
0.370, 6.021e-6, -3.550e-5
0.360, 5.482e-6, -3.495e-5
0.350, 4.854e-6, -3.446e-5
0.340, 4.222e-6, -3.404e-5
0.330, 3.649e-6, -3.368e-5
0.320, 3.147e-6, -3.336e-5
0.310, 2.701e-6, -3.309e-5
0.300, 2.319e-6, -3.286e-5
0.290, 2.011e-6, -3.266e-5
0.280, 1.757e-6, -3.248e-5
0.270, 1.566e-6, -3.233e-5
0.260, 1.390e-6, -3.219e-5
0.250, 1.235e-6, -3.206e-5
0.240, 1.102e-6, -3.195e-5
0.230, 1.009e-6, -3.185e-5
0.220, 9.318e-7, -3.176e-5
0.210, 8.569e-7, -3.167e-5
0.200, 7.854e-7, -3.160e-5
0.190, 7.398e-7, -3.152e-5
0.180, 7.051e-7, -3.145e-5
0.170, 6.723e-7, -3.138e-5
0.160, 6.304e-7, -3.132e-5
0.150, 6.109e-7, -3.126e-5
0.140, 5.967e-7, -3.120e-5
0.130, 5.870e-7, -3.114e-5
0.120, 5.724e-7, -3.108e-5
0.110, 5.593e-7, -3.103e-5
0.100, 5.515e-7, -3.097e-5
0.090, 5.609e-7, -3.092e-5
0.080, 5.635e-7, -3.086e-5
0.070, 5.569e-7, -3.081e-5
0.060, 5.593e-7, -3.075e-5
0.050, 5.768e-7, -3.069e-5
0.040, 6.067e-7, -3.063e-5
0.030, 6.250e-7, -3.057e-5
0.020, 6.453e-7, -3.050e-5
0.010, 6.874e-7, -3.044e-5
0.000, 7.635e-7, -3.036e-5
-0.010, 8.593e-7, -3.027e-5
-0.020, 9.491e-7, -3.018e-5
-0.030, 1.068e-6, -3.007e-5
-0.040, 1.290e-6, -2.994e-5
-0.050, 1.566e-6, -2.979e-5
-0.060, 1.782e-6, -2.961e-5
-0.070, 1.893e-6, -2.942e-5
-0.080, 2.015e-6, -2.922e-5
-0.090, 2.197e-6, -2.900e-5
-0.100, 2.328e-6, -2.876e-5
-0.110, 2.306e-6, -2.853e-5
-0.120, 2.245e-6, -2.831e-5
-0.130, 2.274e-6, -2.808e-5
-0.140, 2.388e-6, -2.784e-5
-0.150, 2.444e-6, -2.760e-5
-0.160, 2.497e-6, -2.735e-5
-0.170, 2.612e-6, -2.709e-5
-0.180, 2.943e-6, -2.679e-5
-0.190, 3.296e-6, -2.646e-5
-0.200, 3.527e-6, -2.611e-5
-0.210, 3.609e-6, -2.575e-5
-0.220, 3.831e-6, -2.537e-5
-0.230, 4.091e-6, -2.496e-5
-0.240, 4.178e-6, -2.454e-5
-0.250, 4.106e-6, -2.413e-5
-0.260, 4.111e-6, -2.372e-5
-0.270, 4.271e-6, -2.329e-5
-0.280, 4.484e-6, -2.284e-5
-0.290, 4.677e-6, -2.238e-5
-0.300, 1.050e-6, -2.227e-5

Segment 7:
-0.290, -9.532e-7, -2.237e-5
-0.280, -1.434e-6, -2.251e-5
-0.270, -1.765e-6, -2.269e-5
-0.260, -2.134e-6, -2.290e-5
-0.250, -2.416e-6, -2.314e-5
-0.240, -2.479e-6, -2.339e-5
-0.230, -2.399e-6, -2.363e-5
-0.220, -2.418e-6, -2.387e-5
-0.210, -2.488e-6, -2.412e-5
-0.200, -2.443e-6, -2.436e-5
-0.190, -2.245e-6, -2.459e-5
-0.180, -2.045e-6, -2.479e-5
-0.170, -1.987e-6, -2.499e-5
-0.160, -1.972e-6, -2.519e-5
-0.150, -1.903e-6, -2.538e-5
-0.140, -1.831e-6, -2.556e-5
-0.130, -1.874e-6, -2.575e-5
-0.120, -2.024e-6, -2.595e-5
-0.110, -2.071e-6, -2.616e-5
-0.100, -2.008e-6, -2.636e-5
-0.090, -2.015e-6, -2.656e-5
-0.080, -2.201e-6, -2.678e-5
-0.070, -2.420e-6, -2.702e-5
-0.060, -2.331e-6, -2.726e-5
-0.050, -1.925e-6, -2.745e-5
-0.040, -1.508e-6, -2.760e-5
-0.030, -1.191e-6, -2.772e-5
-0.020, -9.384e-7, -2.781e-5
-0.010, -7.308e-7, -2.789e-5
-0.000, -5.923e-7, -2.794e-5
0.010, -5.229e-7, -2.800e-5
0.020, -4.794e-7, -2.804e-5
0.030, -4.364e-7, -2.809e-5
0.040, -3.920e-7, -2.813e-5
0.050, -3.593e-7, -2.816e-5
0.060, -3.364e-7, -2.820e-5
0.070, -3.322e-7, -2.823e-5
0.080, -2.975e-7, -2.826e-5
0.090, -2.450e-7, -2.828e-5
0.100, -2.443e-7, -2.831e-5
0.110, -2.632e-7, -2.834e-5
0.120, -2.938e-7, -2.836e-5
0.130, -2.754e-7, -2.839e-5
0.140, -2.499e-7, -2.842e-5
0.150, -2.643e-7, -2.844e-5
0.160, -3.136e-7, -2.847e-5
0.170, -3.120e-7, -2.851e-5
0.180, -2.921e-7, -2.854e-5
0.190, -3.059e-7, -2.857e-5
0.200, -3.357e-7, -2.860e-5
0.210, -3.514e-7, -2.863e-5
0.220, -3.424e-7, -2.867e-5
0.230, -3.404e-7, -2.870e-5
0.240, -3.526e-7, -2.874e-5
0.250, -3.655e-7, -2.877e-5
0.260, -3.694e-7, -2.881e-5
0.270, -3.662e-7, -2.885e-5
0.280, -3.678e-7, -2.889e-5
0.290, -3.837e-7, -2.892e-5
0.300, -3.979e-7, -2.896e-5
0.310, -3.950e-7, -2.900e-5
0.320, -4.001e-7, -2.904e-5
0.330, -4.043e-7, -2.908e-5
0.340, -4.187e-7, -2.913e-5
0.350, -4.349e-7, -2.917e-5
0.360, -4.350e-7, -2.921e-5
0.370, -4.459e-7, -2.926e-5
0.380, -4.630e-7, -2.930e-5
0.390, -4.916e-7, -2.935e-5
0.400, -5.038e-7, -2.940e-5
0.410, -5.181e-7, -2.945e-5
0.420, -5.443e-7, -2.951e-5
0.430, -5.803e-7, -2.957e-5
0.440, -6.173e-7, -2.963e-5
0.450, -6.412e-7, -2.969e-5
0.460, -6.860e-7, -2.976e-5
0.470, -7.626e-7, -2.984e-5
0.480, -8.661e-7, -2.992e-5
0.490, -9.705e-7, -3.002e-5
0.500, -1.083e-6, -3.013e-5
0.510, -1.239e-6, -3.025e-5
0.520, -1.437e-6, -3.040e-5
0.530, -1.598e-6, -3.056e-5
0.540, -1.694e-6, -3.073e-5
0.550, -1.774e-6, -3.090e-5
0.560, -1.866e-6, -3.109e-5
0.570, -1.956e-6, -3.129e-5
0.580, -1.995e-6, -3.149e-5
0.590, -2.011e-6, -3.169e-5
0.600, -2.052e-6, -3.189e-5
0.610, -2.119e-6, -3.210e-5
0.620, -2.159e-6, -3.232e-5
0.630, -2.158e-6, -3.254e-5
0.640, -2.153e-6, -3.275e-5
0.650, -2.186e-6, -3.297e-5
0.660, -2.224e-6, -3.319e-5
0.670, -2.240e-6, -3.342e-5
0.680, -2.224e-6, -3.364e-5
0.690, -2.220e-6, -3.386e-5
0.700, -2.259e-6, -3.409e-5
0.710, -2.286e-6, -3.431e-5
0.720, -2.280e-6, -3.454e-5
0.730, -2.264e-6, -3.477e-5
0.740, -2.267e-6, -3.500e-5
0.750, -2.298e-6, -3.523e-5
0.760, -2.311e-6, -3.546e-5
0.770, -2.291e-6, -3.569e-5
0.780, -2.292e-6, -3.591e-5
0.790, -2.314e-6, -3.615e-5
0.800, -2.346e-6, -3.638e-5
0.810, -2.357e-6, -3.662e-5
0.820, -2.355e-6, -3.685e-5
0.830, -2.378e-6, -3.709e-5
0.840, -2.419e-6, -3.733e-5
0.850, -2.453e-6, -3.758e-5
0.860, -2.465e-6, -3.782e-5
0.870, -2.482e-6, -3.807e-5
0.880, -2.523e-6, -3.832e-5
0.890, -2.564e-6, -3.858e-5
0.900, -2.593e-6, -3.884e-5
0.910, -2.606e-6, -3.910e-5
0.920, -2.628e-6, -3.936e-5
0.930, -2.673e-6, -3.963e-5
0.940, -2.713e-6, -3.990e-5
0.950, -2.726e-6, -4.017e-5
0.960, -2.737e-6, -4.045e-5
0.970, -2.762e-6, -4.072e-5
0.980, -2.799e-6, -4.100e-5
0.990, -2.824e-6, -4.129e-5
1.000, -2.824e-6, -4.157e-5
1.010, -2.839e-6, -4.185e-5
1.020, -2.868e-6, -4.214e-5
1.030, -2.902e-6, -4.243e-5
1.040, -2.915e-6, -4.272e-5
1.050, -2.911e-6, -4.301e-5
1.060, -2.925e-6, -4.330e-5
1.070, -2.949e-6, -4.360e-5
1.080, -2.972e-6, -4.390e-5
1.090, -2.975e-6, -4.419e-5
1.100, -2.984e-6, -4.449e-5
1.110, -3.009e-6, -4.479e-5
1.120, -3.046e-6, -4.510e-5
1.130, -3.073e-6, -4.541e-5
1.140, -3.098e-6, -4.572e-5
1.150, -3.132e-6, -4.603e-5
1.160, -3.187e-6, -4.635e-5
1.170, -3.254e-6, -4.667e-5
1.180, -3.316e-6, -4.700e-5
1.190, -3.387e-6, -4.734e-5
1.200, -3.491e-6, -4.769e-5
1.210, -3.619e-6, -4.805e-5
1.220, -3.765e-6, -4.843e-5
1.230, -3.922e-6, -4.882e-5
1.240, -4.125e-6, -4.923e-5
1.250, -3.569e-6, -4.959e-5

Segment 8:
1.240, -2.535e-6, -4.985e-5
1.230, -1.908e-6, -5.004e-5
1.220, -1.483e-6, -5.018e-5
1.210, -1.194e-6, -5.030e-5
1.200, -9.911e-7, -5.040e-5
1.190, -8.438e-7, -5.049e-5
1.180, -7.234e-7, -5.056e-5
1.170, -6.204e-7, -5.062e-5
1.160, -5.513e-7, -5.068e-5
1.150, -4.967e-7, -5.073e-5
1.140, -4.501e-7, -5.077e-5
1.130, -4.049e-7, -5.081e-5
1.120, -3.639e-7, -5.085e-5
1.110, -3.049e-7, -5.088e-5
1.100, -2.600e-7, -5.090e-5
1.090, -2.015e-7, -5.092e-5
1.080, -1.659e-7, -5.094e-5
1.070, -1.457e-7, -5.096e-5
1.060, -1.331e-7, -5.097e-5
1.050, -1.199e-7, -5.098e-5
1.040, -9.988e-8, -5.099e-5
1.030, -7.229e-8, -5.100e-5
1.020, -6.202e-8, -5.100e-5
1.010, -5.418e-8, -5.101e-5
1.000, -4.462e-8, -5.101e-5
0.990, -1.738e-8, -5.102e-5
0.980, 1.546e-9, -5.102e-5
0.970, 1.010e-8, -5.102e-5
0.960, 1.562e-8, -5.101e-5
0.950, 3.105e-8, -5.101e-5
0.940, 4.943e-8, -5.101e-5
0.930, 6.788e-8, -5.100e-5
0.920, 7.141e-8, -5.099e-5
0.910, 8.217e-8, -5.098e-5
0.900, 1.033e-7, -5.097e-5
0.890, 1.253e-7, -5.096e-5
0.880, 1.345e-7, -5.095e-5
0.870, 1.399e-7, -5.093e-5
0.860, 1.559e-7, -5.092e-5
0.850, 1.818e-7, -5.090e-5
0.840, 2.018e-7, -5.088e-5
0.830, 2.083e-7, -5.086e-5
0.820, 2.204e-7, -5.084e-5
0.810, 2.437e-7, -5.081e-5
0.800, 2.728e-7, -5.078e-5
0.790, 2.923e-7, -5.076e-5
0.780, 2.987e-7, -5.073e-5
0.770, 3.229e-7, -5.069e-5
0.760, 3.586e-7, -5.066e-5
0.750, 3.874e-7, -5.062e-5
0.740, 4.041e-7, -5.058e-5
0.730, 4.273e-7, -5.054e-5
0.720, 4.625e-7, -5.049e-5
0.710, 5.061e-7, -5.044e-5
0.700, 5.414e-7, -5.038e-5
0.690, 5.609e-7, -5.033e-5
0.680, 6.000e-7, -5.027e-5
0.670, 6.557e-7, -5.020e-5
0.660, 7.078e-7, -5.013e-5
0.650, 7.485e-7, -5.006e-5
0.640, 7.908e-7, -4.998e-5
0.630, 8.575e-7, -4.989e-5
0.620, 9.384e-7, -4.980e-5
0.610, 1.006e-6, -4.970e-5
0.600, 1.070e-6, -4.959e-5
0.590, 1.156e-6, -4.948e-5
0.580, 1.282e-6, -4.935e-5
0.570, 1.403e-6, -4.921e-5
0.560, 1.511e-6, -4.906e-5
0.550, 1.640e-6, -4.889e-5
0.540, 1.799e-6, -4.871e-5
0.530, 2.000e-6, -4.851e-5
0.520, 2.204e-6, -4.829e-5
0.510, 2.425e-6, -4.805e-5
0.500, 2.695e-6, -4.778e-5
0.490, 3.025e-6, -4.748e-5
0.480, 3.395e-6, -4.714e-5
0.470, 3.785e-6, -4.676e-5
0.460, 4.226e-6, -4.634e-5
0.450, 4.739e-6, -4.586e-5
0.440, 5.271e-6, -4.534e-5
0.430, 5.763e-6, -4.476e-5
0.420, 6.182e-6, -4.414e-5
0.410, 6.511e-6, -4.349e-5
0.400, 6.716e-6, -4.282e-5
0.390, 6.700e-6, -4.215e-5
0.380, 6.436e-6, -4.150e-5
0.370, 6.002e-6, -4.090e-5
0.360, 5.467e-6, -4.036e-5
0.350, 4.870e-6, -3.987e-5
0.340, 4.239e-6, -3.945e-5
0.330, 3.634e-6, -3.908e-5
0.320, 3.114e-6, -3.877e-5
0.310, 2.682e-6, -3.850e-5
0.300, 2.320e-6, -3.827e-5
0.290, 2.014e-6, -3.807e-5
0.280, 1.749e-6, -3.790e-5
0.270, 1.545e-6, -3.774e-5
0.260, 1.383e-6, -3.760e-5
0.250, 1.244e-6, -3.748e-5
0.240, 1.108e-6, -3.737e-5
0.230, 1.003e-6, -3.727e-5
0.220, 9.246e-7, -3.717e-5
0.210, 8.589e-7, -3.709e-5
0.200, 8.045e-7, -3.701e-5
0.190, 7.534e-7, -3.693e-5
0.180, 7.001e-7, -3.686e-5
0.170, 6.673e-7, -3.680e-5
0.160, 6.471e-7, -3.673e-5
0.150, 6.239e-7, -3.667e-5
0.140, 6.059e-7, -3.661e-5
0.130, 5.827e-7, -3.655e-5
0.120, 5.801e-7, -3.649e-5
0.110, 5.778e-7, -3.643e-5
0.100, 5.706e-7, -3.638e-5
0.090, 5.636e-7, -3.632e-5
0.080, 5.591e-7, -3.627e-5
0.070, 5.739e-7, -3.621e-5
0.060, 5.845e-7, -3.615e-5
0.050, 5.902e-7, -3.609e-5
0.040, 5.993e-7, -3.603e-5
0.030, 6.256e-7, -3.597e-5
0.020, 6.741e-7, -3.590e-5
0.010, 7.190e-7, -3.583e-5
0.000, 7.597e-7, -3.575e-5
-0.010, 8.339e-7, -3.567e-5
-0.020, 9.620e-7, -3.557e-5
-0.030, 1.145e-6, -3.546e-5
-0.040, 1.328e-6, -3.533e-5
-0.050, 1.508e-6, -3.517e-5
-0.060, 1.740e-6, -3.500e-5
-0.070, 1.989e-6, -3.480e-5
-0.080, 2.150e-6, -3.459e-5
-0.090, 2.182e-6, -3.437e-5
-0.100, 2.210e-6, -3.415e-5
-0.110, 2.311e-6, -3.392e-5
-0.120, 2.372e-6, -3.368e-5
-0.130, 2.328e-6, -3.345e-5
-0.140, 2.272e-6, -3.322e-5
-0.150, 2.332e-6, -3.299e-5
-0.160, 2.541e-6, -3.273e-5
-0.170, 2.757e-6, -3.246e-5
-0.180, 2.931e-6, -3.216e-5
-0.190, 3.144e-6, -3.185e-5
-0.200, 3.489e-6, -3.150e-5
-0.210, 3.800e-6, -3.112e-5
-0.220, 3.967e-6, -3.072e-5
-0.230, 3.960e-6, -3.033e-5
-0.240, 4.030e-6, -2.992e-5
-0.250, 4.202e-6, -2.950e-5
-0.260, 4.292e-6, -2.908e-5
-0.270, 4.273e-6, -2.865e-5
-0.280, 4.297e-6, -2.822e-5
-0.290, 4.605e-6, -2.776e-5
-0.300, 1.216e-6, -2.764e-5
