Nov. 2, 2023   12:16:01
Cyclic Voltammetry
File: c:\users\dell\desktop\电化学数据\114514\blank0_1.txt
Data Source:  Experiment
Instrument Model:  CHI600B
Header: 
Note: 

Init E (V) = -0.25
High E (V) = 1.2
Low E (V) = -0.25
Init P/N = P
Scan Rate (V/s) = 0.1
Segment = 8
Sample Interval (V) = 0.005
Quiet Time (sec) = 8
Sensitivity (A/V) = 1e-5

Segment 1:
Ep = 1.195V
ip = -1.189e-7A
Ah = -2.833e-8C

Segment 2:
Ep = 0.395V
ip = 3.702e-6A
Ah = 3.246e-6C

Ep = -0.245V
ip = 1.749e-6A
Ah = 7.923e-7C

Segment 3:
Ep = 1.195V
ip = -3.284e-7A
Ah = -1.292e-7C

Segment 4:
Ep = 0.400V
ip = 4.025e-6A
Ah = 3.487e-6C

Ep = -0.240V
ip = 2.112e-6A
Ah = 9.547e-7C

Segment 5:
Ep = 1.195V
ip = -3.939e-7A
Ah = -1.682e-7C

Segment 6:
Ep = 0.405V
ip = 4.212e-6A
Ah = 3.415e-6C

Ep = -0.235V
ip = 1.726e-6A
Ah = 6.604e-7C

Segment 7:
Ep = 1.195V
ip = -3.512e-7A
Ah = -1.156e-7C

Segment 8:
Ep = 0.405V
ip = 4.383e-6A
Ah = 3.604e-6C

Ep = -0.235V
ip = 1.650e-6A
Ah = 6.369e-7C

Potential/V, Current/A, Charge/C

Segment 1:
-0.245, -1.969e-6, -9.846e-8
-0.240, -1.871e-6, -1.920e-7
-0.235, -2.077e-6, -2.959e-7
-0.230, -2.065e-6, -3.991e-7
-0.225, -1.942e-6, -4.962e-7
-0.220, -2.123e-6, -6.024e-7
-0.215, -2.122e-6, -7.085e-7
-0.210, -1.965e-6, -8.067e-7
-0.205, -2.140e-6, -9.137e-7
-0.200, -2.129e-6, -1.020e-6
-0.195, -1.958e-6, -1.118e-6
-0.190, -2.087e-6, -1.222e-6
-0.185, -2.090e-6, -1.327e-6
-0.180, -1.868e-6, -1.420e-6
-0.175, -1.970e-6, -1.519e-6
-0.170, -1.976e-6, -1.618e-6
-0.165, -1.782e-6, -1.707e-6
-0.160, -1.850e-6, -1.799e-6
-0.155, -1.894e-6, -1.894e-6
-0.150, -1.716e-6, -1.980e-6
-0.145, -1.796e-6, -2.070e-6
-0.140, -1.869e-6, -2.163e-6
-0.135, -1.726e-6, -2.249e-6
-0.130, -1.800e-6, -2.339e-6
-0.125, -1.906e-6, -2.435e-6
-0.120, -1.763e-6, -2.523e-6
-0.115, -1.837e-6, -2.615e-6
-0.110, -1.932e-6, -2.711e-6
-0.105, -1.804e-6, -2.801e-6
-0.100, -1.849e-6, -2.894e-6
-0.095, -1.972e-6, -2.992e-6
-0.090, -1.850e-6, -3.085e-6
-0.085, -1.895e-6, -3.180e-6
-0.080, -2.063e-6, -3.283e-6
-0.075, -1.941e-6, -3.380e-6
-0.070, -1.964e-6, -3.478e-6
-0.065, -2.121e-6, -3.584e-6
-0.060, -1.943e-6, -3.681e-6
-0.055, -1.860e-6, -3.774e-6
-0.050, -1.894e-6, -3.869e-6
-0.045, -1.643e-6, -3.951e-6
-0.040, -1.484e-6, -4.025e-6
-0.035, -1.436e-6, -4.097e-6
-0.030, -1.213e-6, -4.158e-6
-0.025, -1.075e-6, -4.212e-6
-0.020, -1.035e-6, -4.263e-6
-0.015, -9.003e-7, -4.308e-6
-0.010, -8.055e-7, -4.349e-6
-0.005, -7.909e-7, -4.388e-6
-0.000, -6.992e-7, -4.423e-6
0.005, -6.383e-7, -4.455e-6
0.010, -6.386e-7, -4.487e-6
0.015, -5.860e-7, -4.516e-6
0.020, -5.363e-7, -4.543e-6
0.025, -5.368e-7, -4.570e-6
0.030, -4.947e-7, -4.595e-6
0.035, -4.603e-7, -4.618e-6
0.040, -4.662e-7, -4.641e-6
0.045, -4.401e-7, -4.663e-6
0.050, -4.101e-7, -4.683e-6
0.055, -4.193e-7, -4.704e-6
0.060, -4.053e-7, -4.725e-6
0.065, -3.906e-7, -4.744e-6
0.070, -3.993e-7, -4.764e-6
0.075, -3.895e-7, -4.784e-6
0.080, -3.628e-7, -4.802e-6
0.085, -3.779e-7, -4.821e-6
0.090, -3.733e-7, -4.839e-6
0.095, -3.569e-7, -4.857e-6
0.100, -3.641e-7, -4.875e-6
0.105, -3.641e-7, -4.894e-6
0.110, -3.516e-7, -4.911e-6
0.115, -3.564e-7, -4.929e-6
0.120, -3.582e-7, -4.947e-6
0.125, -3.462e-7, -4.964e-6
0.130, -3.547e-7, -4.982e-6
0.135, -3.590e-7, -5.000e-6
0.140, -3.487e-7, -5.017e-6
0.145, -3.547e-7, -5.035e-6
0.150, -3.582e-7, -5.053e-6
0.155, -3.514e-7, -5.071e-6
0.160, -3.545e-7, -5.088e-6
0.165, -3.610e-7, -5.106e-6
0.170, -3.526e-7, -5.124e-6
0.175, -3.557e-7, -5.142e-6
0.180, -3.614e-7, -5.160e-6
0.185, -3.544e-7, -5.178e-6
0.190, -3.562e-7, -5.195e-6
0.195, -3.644e-7, -5.214e-6
0.200, -3.553e-7, -5.231e-6
0.205, -3.581e-7, -5.249e-6
0.210, -3.707e-7, -5.268e-6
0.215, -3.608e-7, -5.286e-6
0.220, -3.630e-7, -5.304e-6
0.225, -3.830e-7, -5.323e-6
0.230, -3.627e-7, -5.341e-6
0.235, -3.671e-7, -5.360e-6
0.240, -3.911e-7, -5.379e-6
0.245, -3.776e-7, -5.398e-6
0.250, -3.777e-7, -5.417e-6
0.255, -4.004e-7, -5.437e-6
0.260, -3.900e-7, -5.456e-6
0.265, -3.893e-7, -5.476e-6
0.270, -4.030e-7, -5.496e-6
0.275, -4.026e-7, -5.516e-6
0.280, -4.000e-7, -5.536e-6
0.285, -4.072e-7, -5.557e-6
0.290, -4.056e-7, -5.577e-6
0.295, -4.050e-7, -5.597e-6
0.300, -4.214e-7, -5.618e-6
0.305, -4.205e-7, -5.639e-6
0.310, -4.166e-7, -5.660e-6
0.315, -4.443e-7, -5.682e-6
0.320, -4.439e-7, -5.704e-6
0.325, -4.369e-7, -5.726e-6
0.330, -4.509e-7, -5.749e-6
0.335, -4.519e-7, -5.771e-6
0.340, -4.492e-7, -5.794e-6
0.345, -4.576e-7, -5.817e-6
0.350, -4.626e-7, -5.840e-6
0.355, -4.554e-7, -5.863e-6
0.360, -4.827e-7, -5.887e-6
0.365, -4.925e-7, -5.911e-6
0.370, -4.841e-7, -5.936e-6
0.375, -5.023e-7, -5.961e-6
0.380, -5.080e-7, -5.986e-6
0.385, -5.036e-7, -6.011e-6
0.390, -5.274e-7, -6.038e-6
0.395, -5.464e-7, -6.065e-6
0.400, -5.362e-7, -6.092e-6
0.405, -5.550e-7, -6.120e-6
0.410, -5.766e-7, -6.148e-6
0.415, -5.683e-7, -6.177e-6
0.420, -5.924e-7, -6.206e-6
0.425, -6.063e-7, -6.237e-6
0.430, -6.032e-7, -6.267e-6
0.435, -6.293e-7, -6.298e-6
0.440, -6.512e-7, -6.331e-6
0.445, -6.487e-7, -6.363e-6
0.450, -6.758e-7, -6.397e-6
0.455, -7.105e-7, -6.433e-6
0.460, -7.102e-7, -6.468e-6
0.465, -7.404e-7, -6.505e-6
0.470, -7.829e-7, -6.544e-6
0.475, -7.890e-7, -6.584e-6
0.480, -8.178e-7, -6.625e-6
0.485, -8.741e-7, -6.668e-6
0.490, -8.905e-7, -6.713e-6
0.495, -9.262e-7, -6.759e-6
0.500, -1.001e-6, -6.809e-6
0.505, -1.024e-6, -6.860e-6
0.510, -1.073e-6, -6.914e-6
0.515, -1.163e-6, -6.972e-6
0.520, -1.197e-6, -7.032e-6
0.525, -1.241e-6, -7.094e-6
0.530, -1.343e-6, -7.161e-6
0.535, -1.379e-6, -7.230e-6
0.540, -1.410e-6, -7.301e-6
0.545, -1.507e-6, -7.376e-6
0.550, -1.545e-6, -7.453e-6
0.555, -1.559e-6, -7.531e-6
0.560, -1.657e-6, -7.614e-6
0.565, -1.685e-6, -7.699e-6
0.570, -1.688e-6, -7.783e-6
0.575, -1.779e-6, -7.872e-6
0.580, -1.807e-6, -7.962e-6
0.585, -1.803e-6, -8.052e-6
0.590, -1.890e-6, -8.147e-6
0.595, -1.935e-6, -8.244e-6
0.600, -1.918e-6, -8.340e-6
0.605, -1.998e-6, -8.439e-6
0.610, -2.038e-6, -8.541e-6
0.615, -2.018e-6, -8.642e-6
0.620, -2.097e-6, -8.747e-6
0.625, -2.139e-6, -8.854e-6
0.630, -2.110e-6, -8.960e-6
0.635, -2.171e-6, -9.068e-6
0.640, -2.207e-6, -9.178e-6
0.645, -2.179e-6, -9.287e-6
0.650, -2.236e-6, -9.399e-6
0.655, -2.282e-6, -9.513e-6
0.660, -2.243e-6, -9.625e-6
0.665, -2.289e-6, -9.740e-6
0.670, -2.340e-6, -9.857e-6
0.675, -2.299e-6, -9.972e-6
0.680, -2.341e-6, -1.009e-5
0.685, -2.385e-6, -1.021e-5
0.690, -2.347e-6, -1.033e-5
0.695, -2.376e-6, -1.044e-5
0.700, -2.425e-6, -1.057e-5
0.705, -2.390e-6, -1.069e-5
0.710, -2.412e-6, -1.081e-5
0.715, -2.471e-6, -1.093e-5
0.720, -2.434e-6, -1.105e-5
0.725, -2.451e-6, -1.117e-5
0.730, -2.508e-6, -1.130e-5
0.735, -2.477e-6, -1.142e-5
0.740, -2.481e-6, -1.155e-5
0.745, -2.536e-6, -1.167e-5
0.750, -2.510e-6, -1.180e-5
0.755, -2.514e-6, -1.192e-5
0.760, -2.562e-6, -1.205e-5
0.765, -2.543e-6, -1.218e-5
0.770, -2.544e-6, -1.231e-5
0.775, -2.590e-6, -1.244e-5
0.780, -2.576e-6, -1.257e-5
0.785, -2.572e-6, -1.269e-5
0.790, -2.620e-6, -1.283e-5
0.795, -2.605e-6, -1.296e-5
0.800, -2.602e-6, -1.309e-5
0.805, -2.656e-6, -1.322e-5
0.810, -2.655e-6, -1.335e-5
0.815, -2.648e-6, -1.348e-5
0.820, -2.700e-6, -1.362e-5
0.825, -2.705e-6, -1.375e-5
0.830, -2.699e-6, -1.389e-5
0.835, -2.751e-6, -1.403e-5
0.840, -2.756e-6, -1.416e-5
0.845, -2.750e-6, -1.430e-5
0.850, -2.800e-6, -1.444e-5
0.855, -2.815e-6, -1.458e-5
0.860, -2.812e-6, -1.472e-5
0.865, -2.864e-6, -1.487e-5
0.870, -2.891e-6, -1.501e-5
0.875, -2.883e-6, -1.515e-5
0.880, -2.935e-6, -1.530e-5
0.885, -2.957e-6, -1.545e-5
0.890, -2.951e-6, -1.560e-5
0.895, -2.998e-6, -1.575e-5
0.900, -3.033e-6, -1.590e-5
0.905, -3.024e-6, -1.605e-5
0.910, -3.073e-6, -1.620e-5
0.915, -3.107e-6, -1.636e-5
0.920, -3.102e-6, -1.651e-5
0.925, -3.147e-6, -1.667e-5
0.930, -3.186e-6, -1.683e-5
0.935, -3.182e-6, -1.699e-5
0.940, -3.221e-6, -1.715e-5
0.945, -3.259e-6, -1.731e-5
0.950, -3.251e-6, -1.748e-5
0.955, -3.293e-6, -1.764e-5
0.960, -3.335e-6, -1.781e-5
0.965, -3.332e-6, -1.797e-5
0.970, -3.364e-6, -1.814e-5
0.975, -3.411e-6, -1.831e-5
0.980, -3.402e-6, -1.848e-5
0.985, -3.433e-6, -1.865e-5
0.990, -3.484e-6, -1.883e-5
0.995, -3.477e-6, -1.900e-5
1.000, -3.502e-6, -1.918e-5
1.005, -3.547e-6, -1.935e-5
1.010, -3.540e-6, -1.953e-5
1.015, -3.563e-6, -1.971e-5
1.020, -3.613e-6, -1.989e-5
1.025, -3.606e-6, -2.007e-5
1.030, -3.622e-6, -2.025e-5
1.035, -3.669e-6, -2.044e-5
1.040, -3.662e-6, -2.062e-5
1.045, -3.669e-6, -2.080e-5
1.050, -3.712e-6, -2.099e-5
1.055, -3.704e-6, -2.117e-5
1.060, -3.710e-6, -2.136e-5
1.065, -3.744e-6, -2.155e-5
1.070, -3.736e-6, -2.173e-5
1.075, -3.737e-6, -2.192e-5
1.080, -3.775e-6, -2.211e-5
1.085, -3.773e-6, -2.230e-5
1.090, -3.771e-6, -2.249e-5
1.095, -3.806e-6, -2.268e-5
1.100, -3.796e-6, -2.287e-5
1.105, -3.785e-6, -2.305e-5
1.110, -3.824e-6, -2.325e-5
1.115, -3.824e-6, -2.344e-5
1.120, -3.818e-6, -2.363e-5
1.125, -3.855e-6, -2.382e-5
1.130, -3.859e-6, -2.401e-5
1.135, -3.842e-6, -2.421e-5
1.140, -3.878e-6, -2.440e-5
1.145, -3.886e-6, -2.459e-5
1.150, -3.873e-6, -2.479e-5
1.155, -3.912e-6, -2.498e-5
1.160, -3.921e-6, -2.518e-5
1.165, -3.920e-6, -2.538e-5
1.170, -3.956e-6, -2.557e-5
1.175, -3.978e-6, -2.577e-5
1.180, -3.975e-6, -2.597e-5
1.185, -4.024e-6, -2.617e-5
1.190, -4.065e-6, -2.637e-5
1.195, -4.067e-6, -2.658e-5
1.200, -3.707e-6, -2.676e-5

Segment 2:
1.195, -3.078e-6, -2.692e-5
1.190, -2.608e-6, -2.705e-5
1.185, -2.272e-6, -2.716e-5
1.180, -1.999e-6, -2.726e-5
1.175, -1.747e-6, -2.735e-5
1.170, -1.571e-6, -2.743e-5
1.165, -1.414e-6, -2.750e-5
1.160, -1.271e-6, -2.756e-5
1.155, -1.167e-6, -2.762e-5
1.150, -1.073e-6, -2.767e-5
1.145, -9.703e-7, -2.772e-5
1.140, -9.070e-7, -2.777e-5
1.135, -8.431e-7, -2.781e-5
1.130, -7.726e-7, -2.785e-5
1.125, -7.365e-7, -2.789e-5
1.120, -6.871e-7, -2.792e-5
1.115, -6.324e-7, -2.795e-5
1.110, -6.024e-7, -2.798e-5
1.105, -5.802e-7, -2.801e-5
1.100, -5.309e-7, -2.804e-5
1.095, -5.069e-7, -2.806e-5
1.090, -4.901e-7, -2.809e-5
1.085, -4.519e-7, -2.811e-5
1.080, -4.425e-7, -2.813e-5
1.075, -4.223e-7, -2.815e-5
1.070, -3.959e-7, -2.817e-5
1.065, -3.862e-7, -2.819e-5
1.060, -3.741e-7, -2.821e-5
1.055, -3.352e-7, -2.823e-5
1.050, -3.140e-7, -2.824e-5
1.045, -2.875e-7, -2.826e-5
1.040, -2.049e-7, -2.827e-5
1.035, -1.998e-7, -2.828e-5
1.030, -1.965e-7, -2.829e-5
1.025, -1.619e-7, -2.830e-5
1.020, -1.598e-7, -2.830e-5
1.015, -1.604e-7, -2.831e-5
1.010, -1.323e-7, -2.832e-5
1.005, -1.206e-7, -2.832e-5
1.000, -1.272e-7, -2.833e-5
0.995, -1.061e-7, -2.834e-5
0.990, -9.787e-8, -2.834e-5
0.985, -1.008e-7, -2.835e-5
0.980, -7.587e-8, -2.835e-5
0.975, -6.433e-8, -2.835e-5
0.970, -7.047e-8, -2.836e-5
0.965, -5.683e-8, -2.836e-5
0.960, -4.088e-8, -2.836e-5
0.955, -5.290e-8, -2.836e-5
0.950, -2.545e-8, -2.836e-5
0.945, -1.359e-8, -2.837e-5
0.940, -1.775e-8, -2.837e-5
0.935, -6.015e-9, -2.837e-5
0.930, 1.493e-8, -2.837e-5
0.925, -1.454e-10, -2.837e-5
0.920, 2.417e-8, -2.836e-5
0.915, 3.487e-8, -2.836e-5
0.910, 3.308e-8, -2.836e-5
0.905, 3.735e-8, -2.836e-5
0.900, 5.597e-8, -2.836e-5
0.895, 4.358e-8, -2.835e-5
0.890, 6.227e-8, -2.835e-5
0.885, 8.480e-8, -2.835e-5
0.880, 7.949e-8, -2.834e-5
0.875, 8.578e-8, -2.834e-5
0.870, 1.083e-7, -2.833e-5
0.865, 1.001e-7, -2.833e-5
0.860, 1.101e-7, -2.832e-5
0.855, 1.320e-7, -2.832e-5
0.850, 1.275e-7, -2.831e-5
0.845, 1.314e-7, -2.830e-5
0.840, 1.572e-7, -2.830e-5
0.835, 1.479e-7, -2.829e-5
0.830, 1.560e-7, -2.828e-5
0.825, 1.827e-7, -2.827e-5
0.820, 1.804e-7, -2.826e-5
0.815, 1.820e-7, -2.825e-5
0.810, 2.136e-7, -2.824e-5
0.805, 2.080e-7, -2.823e-5
0.800, 2.111e-7, -2.822e-5
0.795, 2.341e-7, -2.821e-5
0.790, 2.334e-7, -2.820e-5
0.785, 2.349e-7, -2.819e-5
0.780, 2.734e-7, -2.817e-5
0.775, 2.762e-7, -2.816e-5
0.770, 2.760e-7, -2.815e-5
0.765, 3.051e-7, -2.813e-5
0.760, 3.088e-7, -2.811e-5
0.755, 3.106e-7, -2.810e-5
0.750, 3.381e-7, -2.808e-5
0.745, 3.440e-7, -2.806e-5
0.740, 3.421e-7, -2.805e-5
0.735, 3.776e-7, -2.803e-5
0.730, 3.869e-7, -2.801e-5
0.725, 3.809e-7, -2.799e-5
0.720, 4.225e-7, -2.797e-5
0.715, 4.332e-7, -2.795e-5
0.710, 4.306e-7, -2.793e-5
0.705, 4.716e-7, -2.790e-5
0.700, 4.906e-7, -2.788e-5
0.695, 4.873e-7, -2.785e-5
0.690, 5.176e-7, -2.783e-5
0.685, 5.442e-7, -2.780e-5
0.680, 5.418e-7, -2.777e-5
0.675, 5.770e-7, -2.774e-5
0.670, 6.157e-7, -2.771e-5
0.665, 6.149e-7, -2.768e-5
0.660, 6.412e-7, -2.765e-5
0.655, 6.825e-7, -2.762e-5
0.650, 6.822e-7, -2.758e-5
0.645, 7.158e-7, -2.755e-5
0.640, 7.613e-7, -2.751e-5
0.635, 7.667e-7, -2.747e-5
0.630, 8.006e-7, -2.743e-5
0.625, 8.523e-7, -2.739e-5
0.620, 8.628e-7, -2.734e-5
0.615, 8.984e-7, -2.730e-5
0.610, 9.555e-7, -2.725e-5
0.605, 9.644e-7, -2.720e-5
0.600, 1.005e-6, -2.715e-5
0.595, 1.073e-6, -2.710e-5
0.590, 1.091e-6, -2.705e-5
0.585, 1.133e-6, -2.699e-5
0.580, 1.226e-6, -2.693e-5
0.575, 1.257e-6, -2.686e-5
0.570, 1.302e-6, -2.680e-5
0.565, 1.391e-6, -2.673e-5
0.560, 1.436e-6, -2.666e-5
0.555, 1.480e-6, -2.658e-5
0.550, 1.584e-6, -2.650e-5
0.545, 1.643e-6, -2.642e-5
0.540, 1.696e-6, -2.634e-5
0.535, 1.811e-6, -2.625e-5
0.530, 1.892e-6, -2.615e-5
0.525, 1.959e-6, -2.605e-5
0.520, 2.092e-6, -2.595e-5
0.515, 2.198e-6, -2.584e-5
0.510, 2.278e-6, -2.573e-5
0.505, 2.434e-6, -2.560e-5
0.500, 2.565e-6, -2.548e-5
0.495, 2.668e-6, -2.534e-5
0.490, 2.847e-6, -2.520e-5
0.485, 3.010e-6, -2.505e-5
0.480, 3.128e-6, -2.489e-5
0.475, 3.328e-6, -2.473e-5
0.470, 3.526e-6, -2.455e-5
0.465, 3.666e-6, -2.437e-5
0.460, 3.881e-6, -2.417e-5
0.455, 4.102e-6, -2.397e-5
0.450, 4.261e-6, -2.376e-5
0.445, 4.494e-6, -2.353e-5
0.440, 4.725e-6, -2.329e-5
0.435, 4.862e-6, -2.305e-5
0.430, 5.052e-6, -2.280e-5
0.425, 5.266e-6, -2.254e-5
0.420, 5.363e-6, -2.227e-5
0.415, 5.490e-6, -2.199e-5
0.410, 5.632e-6, -2.171e-5
0.405, 5.649e-6, -2.143e-5
0.400, 5.675e-6, -2.115e-5
0.395, 5.713e-6, -2.086e-5
0.390, 5.628e-6, -2.058e-5
0.385, 5.529e-6, -2.030e-5
0.380, 5.461e-6, -2.003e-5
0.375, 5.273e-6, -1.977e-5
0.370, 5.094e-6, -1.951e-5
0.365, 4.933e-6, -1.926e-5
0.360, 4.687e-6, -1.903e-5
0.355, 4.450e-6, -1.881e-5
0.350, 4.240e-6, -1.859e-5
0.345, 3.976e-6, -1.840e-5
0.340, 3.736e-6, -1.821e-5
0.335, 3.539e-6, -1.803e-5
0.330, 3.299e-6, -1.787e-5
0.325, 3.085e-6, -1.771e-5
0.320, 2.921e-6, -1.757e-5
0.315, 2.714e-6, -1.743e-5
0.310, 2.537e-6, -1.730e-5
0.305, 2.400e-6, -1.718e-5
0.300, 2.241e-6, -1.707e-5
0.295, 2.101e-6, -1.697e-5
0.290, 1.998e-6, -1.687e-5
0.285, 1.865e-6, -1.677e-5
0.280, 1.760e-6, -1.669e-5
0.275, 1.681e-6, -1.660e-5
0.270, 1.585e-6, -1.652e-5
0.265, 1.497e-6, -1.645e-5
0.260, 1.441e-6, -1.638e-5
0.255, 1.368e-6, -1.631e-5
0.250, 1.298e-6, -1.624e-5
0.245, 1.254e-6, -1.618e-5
0.240, 1.182e-6, -1.612e-5
0.235, 1.117e-6, -1.607e-5
0.230, 1.098e-6, -1.601e-5
0.225, 1.043e-6, -1.596e-5
0.220, 1.001e-6, -1.591e-5
0.215, 9.704e-7, -1.586e-5
0.210, 9.387e-7, -1.581e-5
0.205, 9.066e-7, -1.577e-5
0.200, 8.909e-7, -1.572e-5
0.195, 8.538e-7, -1.568e-5
0.190, 8.175e-7, -1.564e-5
0.185, 8.157e-7, -1.560e-5
0.180, 7.815e-7, -1.556e-5
0.175, 7.631e-7, -1.552e-5
0.170, 7.625e-7, -1.548e-5
0.165, 7.279e-7, -1.545e-5
0.160, 7.128e-7, -1.541e-5
0.155, 7.155e-7, -1.538e-5
0.150, 6.946e-7, -1.534e-5
0.145, 6.712e-7, -1.531e-5
0.140, 6.734e-7, -1.527e-5
0.135, 6.657e-7, -1.524e-5
0.130, 6.359e-7, -1.521e-5
0.125, 6.516e-7, -1.518e-5
0.120, 6.363e-7, -1.514e-5
0.115, 6.214e-7, -1.511e-5
0.110, 6.245e-7, -1.508e-5
0.105, 6.228e-7, -1.505e-5
0.100, 6.164e-7, -1.502e-5
0.095, 6.213e-7, -1.499e-5
0.090, 6.213e-7, -1.496e-5
0.085, 6.096e-7, -1.493e-5
0.080, 6.201e-7, -1.490e-5
0.075, 6.206e-7, -1.486e-5
0.070, 6.095e-7, -1.483e-5
0.065, 6.196e-7, -1.480e-5
0.060, 6.229e-7, -1.477e-5
0.055, 6.173e-7, -1.474e-5
0.050, 6.252e-7, -1.471e-5
0.045, 6.364e-7, -1.468e-5
0.040, 6.243e-7, -1.465e-5
0.035, 6.499e-7, -1.461e-5
0.030, 6.702e-7, -1.458e-5
0.025, 6.610e-7, -1.455e-5
0.020, 6.874e-7, -1.451e-5
0.015, 7.203e-7, -1.448e-5
0.010, 7.128e-7, -1.444e-5
0.005, 7.505e-7, -1.440e-5
0.000, 7.973e-7, -1.436e-5
-0.005, 7.929e-7, -1.432e-5
-0.010, 8.412e-7, -1.428e-5
-0.015, 9.137e-7, -1.424e-5
-0.020, 9.186e-7, -1.419e-5
-0.025, 9.764e-7, -1.414e-5
-0.030, 1.087e-6, -1.409e-5
-0.035, 1.107e-6, -1.403e-5
-0.040, 1.198e-6, -1.397e-5
-0.045, 1.364e-6, -1.390e-5
-0.050, 1.389e-6, -1.384e-5
-0.055, 1.479e-6, -1.376e-5
-0.060, 1.673e-6, -1.368e-5
-0.065, 1.681e-6, -1.359e-5
-0.070, 1.745e-6, -1.351e-5
-0.075, 1.938e-6, -1.341e-5
-0.080, 1.919e-6, -1.331e-5
-0.085, 1.952e-6, -1.322e-5
-0.090, 2.143e-6, -1.311e-5
-0.095, 2.092e-6, -1.300e-5
-0.100, 2.081e-6, -1.290e-5
-0.105, 2.257e-6, -1.279e-5
-0.110, 2.188e-6, -1.268e-5
-0.115, 2.150e-6, -1.257e-5
-0.120, 2.309e-6, -1.245e-5
-0.125, 2.236e-6, -1.234e-5
-0.130, 2.175e-6, -1.223e-5
-0.135, 2.339e-6, -1.212e-5
-0.140, 2.304e-6, -1.200e-5
-0.145, 2.242e-6, -1.189e-5
-0.150, 2.430e-6, -1.177e-5
-0.155, 2.426e-6, -1.165e-5
-0.160, 2.383e-6, -1.153e-5
-0.165, 2.608e-6, -1.140e-5
-0.170, 2.654e-6, -1.127e-5
-0.175, 2.619e-6, -1.113e-5
-0.180, 2.872e-6, -1.099e-5
-0.185, 2.977e-6, -1.084e-5
-0.190, 2.942e-6, -1.069e-5
-0.195, 3.235e-6, -1.053e-5
-0.200, 3.373e-6, -1.036e-5
-0.205, 3.336e-6, -1.020e-5
-0.210, 3.604e-6, -1.002e-5
-0.215, 3.781e-6, -9.828e-6
-0.220, 3.671e-6, -9.645e-6
-0.225, 3.941e-6, -9.448e-6
-0.230, 4.088e-6, -9.243e-6
-0.235, 3.950e-6, -9.046e-6
-0.240, 4.164e-6, -8.837e-6
-0.245, 4.330e-6, -8.621e-6
-0.250, 1.131e-6, -8.564e-6

Segment 3:
-0.245, -8.392e-7, -8.606e-6
-0.240, -1.158e-6, -8.664e-6
-0.235, -1.624e-6, -8.745e-6
-0.230, -1.643e-6, -8.828e-6
-0.225, -1.636e-6, -8.909e-6
-0.220, -1.921e-6, -9.005e-6
-0.215, -1.845e-6, -9.098e-6
-0.210, -1.744e-6, -9.185e-6
-0.205, -1.985e-6, -9.284e-6
-0.200, -1.884e-6, -9.378e-6
-0.195, -1.736e-6, -9.465e-6
-0.190, -1.898e-6, -9.560e-6
-0.185, -1.805e-6, -9.650e-6
-0.180, -1.619e-6, -9.731e-6
-0.175, -1.745e-6, -9.818e-6
-0.170, -1.661e-6, -9.901e-6
-0.165, -1.500e-6, -9.976e-6
-0.160, -1.608e-6, -1.006e-5
-0.155, -1.574e-6, -1.014e-5
-0.150, -1.431e-6, -1.021e-5
-0.145, -1.548e-6, -1.028e-5
-0.140, -1.553e-6, -1.036e-5
-0.135, -1.422e-6, -1.043e-5
-0.130, -1.542e-6, -1.051e-5
-0.125, -1.567e-6, -1.059e-5
-0.120, -1.446e-6, -1.066e-5
-0.115, -1.575e-6, -1.074e-5
-0.110, -1.625e-6, -1.082e-5
-0.105, -1.500e-6, -1.090e-5
-0.100, -1.634e-6, -1.098e-5
-0.095, -1.714e-6, -1.106e-5
-0.090, -1.592e-6, -1.114e-5
-0.085, -1.734e-6, -1.123e-5
-0.080, -1.835e-6, -1.132e-5
-0.075, -1.685e-6, -1.141e-5
-0.070, -1.802e-6, -1.150e-5
-0.065, -1.881e-6, -1.159e-5
-0.060, -1.661e-6, -1.167e-5
-0.055, -1.662e-6, -1.176e-5
-0.050, -1.633e-6, -1.184e-5
-0.045, -1.350e-6, -1.191e-5
-0.040, -1.269e-6, -1.197e-5
-0.035, -1.180e-6, -1.203e-5
-0.030, -9.468e-7, -1.207e-5
-0.025, -8.572e-7, -1.212e-5
-0.020, -8.068e-7, -1.216e-5
-0.015, -6.540e-7, -1.219e-5
-0.010, -6.067e-7, -1.222e-5
-0.005, -5.801e-7, -1.225e-5
-0.000, -4.796e-7, -1.227e-5
0.005, -4.432e-7, -1.230e-5
0.010, -4.427e-7, -1.232e-5
0.015, -3.807e-7, -1.234e-5
0.020, -3.612e-7, -1.236e-5
0.025, -3.610e-7, -1.237e-5
0.030, -2.563e-7, -1.239e-5
0.035, -2.110e-7, -1.240e-5
0.040, -2.273e-7, -1.241e-5
0.045, -1.827e-7, -1.242e-5
0.050, -1.709e-7, -1.243e-5
0.055, -1.819e-7, -1.244e-5
0.060, -1.597e-7, -1.244e-5
0.065, -1.560e-7, -1.245e-5
0.070, -1.628e-7, -1.246e-5
0.075, -1.487e-7, -1.247e-5
0.080, -1.442e-7, -1.247e-5
0.085, -1.600e-7, -1.248e-5
0.090, -1.526e-7, -1.249e-5
0.095, -1.438e-7, -1.250e-5
0.100, -1.599e-7, -1.250e-5
0.105, -1.521e-7, -1.251e-5
0.110, -1.426e-7, -1.252e-5
0.115, -1.592e-7, -1.253e-5
0.120, -1.533e-7, -1.253e-5
0.125, -1.420e-7, -1.254e-5
0.130, -1.593e-7, -1.255e-5
0.135, -1.559e-7, -1.256e-5
0.140, -1.479e-7, -1.257e-5
0.145, -1.599e-7, -1.257e-5
0.150, -1.584e-7, -1.258e-5
0.155, -1.534e-7, -1.259e-5
0.160, -1.631e-7, -1.260e-5
0.165, -1.633e-7, -1.260e-5
0.170, -1.591e-7, -1.261e-5
0.175, -1.674e-7, -1.262e-5
0.180, -1.668e-7, -1.263e-5
0.185, -1.601e-7, -1.264e-5
0.190, -1.740e-7, -1.265e-5
0.195, -1.766e-7, -1.266e-5
0.200, -1.626e-7, -1.266e-5
0.205, -1.824e-7, -1.267e-5
0.210, -1.887e-7, -1.268e-5
0.215, -1.733e-7, -1.269e-5
0.220, -1.928e-7, -1.270e-5
0.225, -2.015e-7, -1.271e-5
0.230, -1.876e-7, -1.272e-5
0.235, -2.034e-7, -1.273e-5
0.240, -2.093e-7, -1.274e-5
0.245, -2.009e-7, -1.275e-5
0.250, -2.115e-7, -1.276e-5
0.255, -2.243e-7, -1.277e-5
0.260, -2.063e-7, -1.278e-5
0.265, -2.240e-7, -1.279e-5
0.270, -2.585e-7, -1.281e-5
0.275, -2.205e-7, -1.282e-5
0.280, -2.457e-7, -1.283e-5
0.285, -3.019e-7, -1.284e-5
0.290, -2.596e-7, -1.286e-5
0.295, -3.057e-7, -1.287e-5
0.300, -3.486e-7, -1.289e-5
0.305, -3.219e-7, -1.291e-5
0.310, -3.437e-7, -1.292e-5
0.315, -3.584e-7, -1.294e-5
0.320, -3.527e-7, -1.296e-5
0.325, -3.577e-7, -1.298e-5
0.330, -3.737e-7, -1.300e-5
0.335, -3.632e-7, -1.301e-5
0.340, -3.718e-7, -1.303e-5
0.345, -3.976e-7, -1.305e-5
0.350, -3.875e-7, -1.307e-5
0.355, -3.947e-7, -1.309e-5
0.360, -4.066e-7, -1.311e-5
0.365, -4.045e-7, -1.313e-5
0.370, -4.089e-7, -1.315e-5
0.375, -4.349e-7, -1.317e-5
0.380, -4.291e-7, -1.320e-5
0.385, -4.346e-7, -1.322e-5
0.390, -4.569e-7, -1.324e-5
0.395, -4.559e-7, -1.326e-5
0.400, -4.613e-7, -1.329e-5
0.405, -4.975e-7, -1.331e-5
0.410, -5.015e-7, -1.334e-5
0.415, -5.050e-7, -1.336e-5
0.420, -5.453e-7, -1.339e-5
0.425, -5.511e-7, -1.342e-5
0.430, -5.571e-7, -1.344e-5
0.435, -5.968e-7, -1.347e-5
0.440, -6.067e-7, -1.350e-5
0.445, -6.137e-7, -1.354e-5
0.450, -6.596e-7, -1.357e-5
0.455, -6.829e-7, -1.360e-5
0.460, -6.922e-7, -1.364e-5
0.465, -7.495e-7, -1.367e-5
0.470, -7.832e-7, -1.371e-5
0.475, -7.940e-7, -1.375e-5
0.480, -8.658e-7, -1.380e-5
0.485, -9.152e-7, -1.384e-5
0.490, -9.370e-7, -1.389e-5
0.495, -1.020e-6, -1.394e-5
0.500, -1.097e-6, -1.399e-5
0.505, -1.119e-6, -1.405e-5
0.510, -1.218e-6, -1.411e-5
0.515, -1.309e-6, -1.418e-5
0.520, -1.323e-6, -1.424e-5
0.525, -1.416e-6, -1.431e-5
0.530, -1.501e-6, -1.439e-5
0.535, -1.497e-6, -1.446e-5
0.540, -1.568e-6, -1.454e-5
0.545, -1.650e-6, -1.462e-5
0.550, -1.636e-6, -1.471e-5
0.555, -1.688e-6, -1.479e-5
0.560, -1.770e-6, -1.488e-5
0.565, -1.747e-6, -1.497e-5
0.570, -1.791e-6, -1.506e-5
0.575, -1.867e-6, -1.515e-5
0.580, -1.844e-6, -1.524e-5
0.585, -1.882e-6, -1.534e-5
0.590, -1.973e-6, -1.543e-5
0.595, -1.951e-6, -1.553e-5
0.600, -1.978e-6, -1.563e-5
0.605, -2.051e-6, -1.573e-5
0.610, -2.033e-6, -1.584e-5
0.615, -2.051e-6, -1.594e-5
0.620, -2.130e-6, -1.604e-5
0.625, -2.108e-6, -1.615e-5
0.630, -2.113e-6, -1.626e-5
0.635, -2.186e-6, -1.636e-5
0.640, -2.161e-6, -1.647e-5
0.645, -2.158e-6, -1.658e-5
0.650, -2.231e-6, -1.669e-5
0.655, -2.217e-6, -1.680e-5
0.660, -2.203e-6, -1.691e-5
0.665, -2.271e-6, -1.703e-5
0.670, -2.255e-6, -1.714e-5
0.675, -2.236e-6, -1.725e-5
0.680, -2.306e-6, -1.737e-5
0.685, -2.294e-6, -1.748e-5
0.690, -2.257e-6, -1.759e-5
0.695, -2.325e-6, -1.771e-5
0.700, -2.321e-6, -1.783e-5
0.705, -2.289e-6, -1.794e-5
0.710, -2.345e-6, -1.806e-5
0.715, -2.350e-6, -1.818e-5
0.720, -2.310e-6, -1.829e-5
0.725, -2.360e-6, -1.841e-5
0.730, -2.365e-6, -1.853e-5
0.735, -2.327e-6, -1.864e-5
0.740, -2.366e-6, -1.876e-5
0.745, -2.374e-6, -1.888e-5
0.750, -2.340e-6, -1.900e-5
0.755, -2.379e-6, -1.912e-5
0.760, -2.389e-6, -1.924e-5
0.765, -2.352e-6, -1.935e-5
0.770, -2.387e-6, -1.947e-5
0.775, -2.407e-6, -1.959e-5
0.780, -2.368e-6, -1.971e-5
0.785, -2.402e-6, -1.983e-5
0.790, -2.427e-6, -1.995e-5
0.795, -2.387e-6, -2.007e-5
0.800, -2.416e-6, -2.019e-5
0.805, -2.443e-6, -2.032e-5
0.810, -2.417e-6, -2.044e-5
0.815, -2.436e-6, -2.056e-5
0.820, -2.467e-6, -2.068e-5
0.825, -2.438e-6, -2.080e-5
0.830, -2.466e-6, -2.093e-5
0.835, -2.505e-6, -2.105e-5
0.840, -2.478e-6, -2.118e-5
0.845, -2.498e-6, -2.130e-5
0.850, -2.544e-6, -2.143e-5
0.855, -2.518e-6, -2.155e-5
0.860, -2.541e-6, -2.168e-5
0.865, -2.579e-6, -2.181e-5
0.870, -2.559e-6, -2.194e-5
0.875, -2.575e-6, -2.207e-5
0.880, -2.619e-6, -2.220e-5
0.885, -2.606e-6, -2.233e-5
0.890, -2.618e-6, -2.246e-5
0.895, -2.657e-6, -2.259e-5
0.900, -2.645e-6, -2.272e-5
0.905, -2.657e-6, -2.286e-5
0.910, -2.706e-6, -2.299e-5
0.915, -2.699e-6, -2.313e-5
0.920, -2.705e-6, -2.326e-5
0.925, -2.750e-6, -2.340e-5
0.930, -2.745e-6, -2.354e-5
0.935, -2.749e-6, -2.367e-5
0.940, -2.796e-6, -2.381e-5
0.945, -2.790e-6, -2.395e-5
0.950, -2.787e-6, -2.409e-5
0.955, -2.827e-6, -2.423e-5
0.960, -2.827e-6, -2.438e-5
0.965, -2.822e-6, -2.452e-5
0.970, -2.868e-6, -2.466e-5
0.975, -2.870e-6, -2.480e-5
0.980, -2.858e-6, -2.495e-5
0.985, -2.909e-6, -2.509e-5
0.990, -2.911e-6, -2.524e-5
0.995, -2.898e-6, -2.538e-5
1.000, -2.938e-6, -2.553e-5
1.005, -2.943e-6, -2.568e-5
1.010, -2.937e-6, -2.582e-5
1.015, -2.963e-6, -2.597e-5
1.020, -2.976e-6, -2.612e-5
1.025, -2.957e-6, -2.627e-5
1.030, -2.993e-6, -2.642e-5
1.035, -3.003e-6, -2.657e-5
1.040, -2.989e-6, -2.672e-5
1.045, -3.013e-6, -2.687e-5
1.050, -3.024e-6, -2.702e-5
1.055, -3.006e-6, -2.717e-5
1.060, -3.032e-6, -2.732e-5
1.065, -3.046e-6, -2.747e-5
1.070, -3.030e-6, -2.763e-5
1.075, -3.055e-6, -2.778e-5
1.080, -3.078e-6, -2.793e-5
1.085, -3.051e-6, -2.808e-5
1.090, -3.082e-6, -2.824e-5
1.095, -3.098e-6, -2.839e-5
1.100, -3.084e-6, -2.855e-5
1.105, -3.103e-6, -2.870e-5
1.110, -3.135e-6, -2.886e-5
1.115, -3.118e-6, -2.902e-5
1.120, -3.137e-6, -2.917e-5
1.125, -3.168e-6, -2.933e-5
1.130, -3.148e-6, -2.949e-5
1.135, -3.176e-6, -2.965e-5
1.140, -3.211e-6, -2.981e-5
1.145, -3.202e-6, -2.997e-5
1.150, -3.225e-6, -3.013e-5
1.155, -3.271e-6, -3.029e-5
1.160, -3.272e-6, -3.046e-5
1.165, -3.295e-6, -3.062e-5
1.170, -3.340e-6, -3.079e-5
1.175, -3.354e-6, -3.096e-5
1.180, -3.385e-6, -3.112e-5
1.185, -3.448e-6, -3.130e-5
1.190, -3.475e-6, -3.147e-5
1.195, -3.510e-6, -3.165e-5
1.200, -3.174e-6, -3.181e-5

Segment 4:
1.195, -2.587e-6, -3.193e-5
1.190, -2.188e-6, -3.204e-5
1.185, -1.901e-6, -3.214e-5
1.180, -1.640e-6, -3.222e-5
1.175, -1.452e-6, -3.229e-5
1.170, -1.305e-6, -3.236e-5
1.165, -1.164e-6, -3.242e-5
1.160, -1.049e-6, -3.247e-5
1.155, -9.708e-7, -3.252e-5
1.150, -8.718e-7, -3.256e-5
1.145, -8.008e-7, -3.260e-5
1.140, -7.547e-7, -3.264e-5
1.135, -6.861e-7, -3.267e-5
1.130, -6.410e-7, -3.271e-5
1.125, -6.059e-7, -3.274e-5
1.120, -5.629e-7, -3.276e-5
1.115, -5.234e-7, -3.279e-5
1.110, -5.033e-7, -3.282e-5
1.105, -4.662e-7, -3.284e-5
1.100, -4.440e-7, -3.286e-5
1.095, -4.340e-7, -3.288e-5
1.090, -4.010e-7, -3.290e-5
1.085, -3.761e-7, -3.292e-5
1.080, -3.713e-7, -3.294e-5
1.075, -3.454e-7, -3.296e-5
1.070, -2.544e-7, -3.297e-5
1.065, -2.624e-7, -3.298e-5
1.060, -2.055e-7, -3.299e-5
1.055, -1.829e-7, -3.300e-5
1.050, -1.885e-7, -3.301e-5
1.045, -1.652e-7, -3.302e-5
1.040, -1.506e-7, -3.303e-5
1.035, -1.560e-7, -3.304e-5
1.030, -1.339e-7, -3.304e-5
1.025, -1.101e-7, -3.305e-5
1.020, -1.144e-7, -3.305e-5
1.015, -1.036e-7, -3.306e-5
1.010, -8.109e-8, -3.306e-5
1.005, -8.648e-8, -3.307e-5
1.000, -7.885e-8, -3.307e-5
0.995, -5.904e-8, -3.307e-5
0.990, -6.276e-8, -3.308e-5
0.985, -5.692e-8, -3.308e-5
0.980, -2.384e-8, -3.308e-5
0.975, -3.518e-8, -3.308e-5
0.970, -2.608e-8, -3.308e-5
0.965, -6.334e-9, -3.308e-5
0.960, -1.066e-8, -3.309e-5
0.955, -7.972e-9, -3.309e-5
0.950, 2.635e-8, -3.308e-5
0.945, 1.805e-8, -3.308e-5
0.940, 2.229e-8, -3.308e-5
0.935, 3.782e-8, -3.308e-5
0.930, 3.593e-8, -3.308e-5
0.925, 3.647e-8, -3.308e-5
0.920, 6.545e-8, -3.307e-5
0.915, 5.746e-8, -3.307e-5
0.910, 5.900e-8, -3.307e-5
0.905, 8.679e-8, -3.306e-5
0.900, 8.450e-8, -3.306e-5
0.895, 8.350e-8, -3.305e-5
0.890, 1.077e-7, -3.305e-5
0.885, 1.111e-7, -3.304e-5
0.880, 1.033e-7, -3.304e-5
0.875, 1.319e-7, -3.303e-5
0.870, 1.324e-7, -3.303e-5
0.865, 1.298e-7, -3.302e-5
0.860, 1.544e-7, -3.301e-5
0.855, 1.572e-7, -3.300e-5
0.850, 1.492e-7, -3.300e-5
0.845, 1.784e-7, -3.299e-5
0.840, 1.833e-7, -3.298e-5
0.835, 1.792e-7, -3.297e-5
0.830, 2.018e-7, -3.296e-5
0.825, 2.135e-7, -3.295e-5
0.820, 1.995e-7, -3.294e-5
0.815, 2.279e-7, -3.293e-5
0.810, 2.363e-7, -3.292e-5
0.805, 2.303e-7, -3.290e-5
0.800, 2.571e-7, -3.289e-5
0.795, 2.711e-7, -3.288e-5
0.790, 2.627e-7, -3.286e-5
0.785, 2.856e-7, -3.285e-5
0.780, 3.061e-7, -3.283e-5
0.775, 2.936e-7, -3.282e-5
0.770, 3.188e-7, -3.280e-5
0.765, 3.354e-7, -3.279e-5
0.760, 3.284e-7, -3.277e-5
0.755, 3.541e-7, -3.275e-5
0.750, 3.775e-7, -3.273e-5
0.745, 3.724e-7, -3.272e-5
0.740, 3.888e-7, -3.270e-5
0.735, 4.230e-7, -3.267e-5
0.730, 4.167e-7, -3.265e-5
0.725, 4.310e-7, -3.263e-5
0.720, 4.704e-7, -3.261e-5
0.715, 4.634e-7, -3.259e-5
0.710, 4.811e-7, -3.256e-5
0.705, 5.198e-7, -3.254e-5
0.700, 5.164e-7, -3.251e-5
0.695, 5.314e-7, -3.248e-5
0.690, 5.719e-7, -3.245e-5
0.685, 5.723e-7, -3.243e-5
0.680, 5.894e-7, -3.240e-5
0.675, 6.294e-7, -3.237e-5
0.670, 6.329e-7, -3.233e-5
0.665, 6.528e-7, -3.230e-5
0.660, 7.021e-7, -3.227e-5
0.655, 7.143e-7, -3.223e-5
0.650, 7.253e-7, -3.219e-5
0.645, 7.820e-7, -3.215e-5
0.640, 7.963e-7, -3.211e-5
0.635, 8.087e-7, -3.207e-5
0.630, 8.704e-7, -3.203e-5
0.625, 8.919e-7, -3.199e-5
0.620, 9.079e-7, -3.194e-5
0.615, 9.704e-7, -3.189e-5
0.610, 1.004e-6, -3.184e-5
0.605, 1.020e-6, -3.179e-5
0.600, 1.088e-6, -3.174e-5
0.595, 1.127e-6, -3.168e-5
0.590, 1.149e-6, -3.162e-5
0.585, 1.239e-6, -3.156e-5
0.580, 1.296e-6, -3.150e-5
0.575, 1.321e-6, -3.143e-5
0.570, 1.407e-6, -3.136e-5
0.565, 1.473e-6, -3.129e-5
0.560, 1.506e-6, -3.121e-5
0.555, 1.602e-6, -3.113e-5
0.550, 1.687e-6, -3.105e-5
0.545, 1.730e-6, -3.096e-5
0.540, 1.830e-6, -3.087e-5
0.535, 1.940e-6, -3.077e-5
0.530, 2.003e-6, -3.067e-5
0.525, 2.126e-6, -3.056e-5
0.520, 2.257e-6, -3.045e-5
0.515, 2.336e-6, -3.034e-5
0.510, 2.476e-6, -3.021e-5
0.505, 2.633e-6, -3.008e-5
0.500, 2.748e-6, -2.994e-5
0.495, 2.910e-6, -2.980e-5
0.490, 3.104e-6, -2.964e-5
0.485, 3.231e-6, -2.948e-5
0.480, 3.414e-6, -2.931e-5
0.475, 3.649e-6, -2.913e-5
0.470, 3.817e-6, -2.894e-5
0.465, 4.008e-6, -2.874e-5
0.460, 4.279e-6, -2.852e-5
0.455, 4.474e-6, -2.830e-5
0.450, 4.676e-6, -2.806e-5
0.445, 4.947e-6, -2.782e-5
0.440, 5.131e-6, -2.756e-5
0.435, 5.296e-6, -2.730e-5
0.430, 5.541e-6, -2.702e-5
0.425, 5.681e-6, -2.673e-5
0.420, 5.784e-6, -2.645e-5
0.415, 5.947e-6, -2.615e-5
0.410, 5.999e-6, -2.585e-5
0.405, 5.994e-6, -2.555e-5
0.400, 6.042e-6, -2.525e-5
0.395, 5.973e-6, -2.495e-5
0.390, 5.845e-6, -2.466e-5
0.385, 5.763e-6, -2.437e-5
0.380, 5.586e-6, -2.409e-5
0.375, 5.347e-6, -2.382e-5
0.370, 5.171e-6, -2.356e-5
0.365, 4.923e-6, -2.332e-5
0.360, 4.638e-6, -2.308e-5
0.355, 4.422e-6, -2.286e-5
0.350, 4.141e-6, -2.266e-5
0.345, 3.861e-6, -2.246e-5
0.340, 3.645e-6, -2.228e-5
0.335, 3.404e-6, -2.211e-5
0.330, 3.155e-6, -2.195e-5
0.325, 2.975e-6, -2.180e-5
0.320, 2.776e-6, -2.166e-5
0.315, 2.569e-6, -2.154e-5
0.310, 2.427e-6, -2.141e-5
0.305, 2.275e-6, -2.130e-5
0.300, 2.117e-6, -2.120e-5
0.295, 2.008e-6, -2.109e-5
0.290, 1.887e-6, -2.100e-5
0.285, 1.764e-6, -2.091e-5
0.280, 1.681e-6, -2.083e-5
0.275, 1.585e-6, -2.075e-5
0.270, 1.494e-6, -2.067e-5
0.265, 1.434e-6, -2.060e-5
0.260, 1.364e-6, -2.053e-5
0.255, 1.286e-6, -2.047e-5
0.250, 1.244e-6, -2.041e-5
0.245, 1.177e-6, -2.035e-5
0.240, 1.111e-6, -2.029e-5
0.235, 1.075e-6, -2.024e-5
0.230, 1.034e-6, -2.019e-5
0.225, 9.782e-7, -2.014e-5
0.220, 9.618e-7, -2.009e-5
0.215, 9.260e-7, -2.004e-5
0.210, 8.846e-7, -2.000e-5
0.205, 8.676e-7, -1.996e-5
0.200, 8.449e-7, -1.991e-5
0.195, 8.126e-7, -1.987e-5
0.190, 8.036e-7, -1.983e-5
0.185, 7.782e-7, -1.980e-5
0.180, 7.456e-7, -1.976e-5
0.175, 7.410e-7, -1.972e-5
0.170, 7.289e-7, -1.968e-5
0.165, 7.030e-7, -1.965e-5
0.160, 6.973e-7, -1.961e-5
0.155, 6.914e-7, -1.958e-5
0.150, 6.645e-7, -1.955e-5
0.145, 6.651e-7, -1.951e-5
0.140, 6.625e-7, -1.948e-5
0.135, 6.309e-7, -1.945e-5
0.130, 6.342e-7, -1.942e-5
0.125, 6.369e-7, -1.939e-5
0.120, 6.202e-7, -1.935e-5
0.115, 6.214e-7, -1.932e-5
0.110, 6.233e-7, -1.929e-5
0.105, 6.163e-7, -1.926e-5
0.100, 6.191e-7, -1.923e-5
0.095, 6.213e-7, -1.920e-5
0.090, 6.054e-7, -1.917e-5
0.085, 6.059e-7, -1.914e-5
0.080, 6.179e-7, -1.911e-5
0.075, 6.048e-7, -1.908e-5
0.070, 6.083e-7, -1.905e-5
0.065, 6.218e-7, -1.902e-5
0.060, 6.144e-7, -1.899e-5
0.055, 6.141e-7, -1.895e-5
0.050, 6.303e-7, -1.892e-5
0.045, 6.230e-7, -1.889e-5
0.040, 6.269e-7, -1.886e-5
0.035, 6.617e-7, -1.883e-5
0.030, 6.569e-7, -1.879e-5
0.025, 6.625e-7, -1.876e-5
0.020, 7.118e-7, -1.873e-5
0.015, 7.156e-7, -1.869e-5
0.010, 7.200e-7, -1.865e-5
0.005, 7.779e-7, -1.862e-5
0.000, 7.877e-7, -1.858e-5
-0.005, 8.023e-7, -1.854e-5
-0.010, 8.845e-7, -1.849e-5
-0.015, 9.075e-7, -1.845e-5
-0.020, 9.319e-7, -1.840e-5
-0.025, 1.042e-6, -1.835e-5
-0.030, 1.099e-6, -1.829e-5
-0.035, 1.144e-6, -1.824e-5
-0.040, 1.332e-6, -1.817e-5
-0.045, 1.418e-6, -1.810e-5
-0.050, 1.459e-6, -1.802e-5
-0.055, 1.673e-6, -1.794e-5
-0.060, 1.764e-6, -1.785e-5
-0.065, 1.765e-6, -1.776e-5
-0.070, 1.969e-6, -1.767e-5
-0.075, 2.030e-6, -1.756e-5
-0.080, 1.972e-6, -1.747e-5
-0.085, 2.147e-6, -1.736e-5
-0.090, 2.196e-6, -1.725e-5
-0.095, 2.083e-6, -1.714e-5
-0.100, 2.246e-6, -1.703e-5
-0.105, 2.283e-6, -1.692e-5
-0.110, 2.145e-6, -1.681e-5
-0.115, 2.271e-6, -1.670e-5
-0.120, 2.314e-6, -1.658e-5
-0.125, 2.163e-6, -1.647e-5
-0.130, 2.273e-6, -1.636e-5
-0.135, 2.346e-6, -1.624e-5
-0.140, 2.219e-6, -1.613e-5
-0.145, 2.337e-6, -1.601e-5
-0.150, 2.439e-6, -1.589e-5
-0.155, 2.341e-6, -1.578e-5
-0.160, 2.464e-6, -1.565e-5
-0.165, 2.636e-6, -1.552e-5
-0.170, 2.554e-6, -1.539e-5
-0.175, 2.708e-6, -1.526e-5
-0.180, 2.939e-6, -1.511e-5
-0.185, 2.892e-6, -1.497e-5
-0.190, 3.062e-6, -1.481e-5
-0.195, 3.360e-6, -1.465e-5
-0.200, 3.312e-6, -1.448e-5
-0.205, 3.474e-6, -1.431e-5
-0.210, 3.794e-6, -1.412e-5
-0.215, 3.734e-6, -1.393e-5
-0.220, 3.820e-6, -1.374e-5
-0.225, 4.169e-6, -1.353e-5
-0.230, 4.037e-6, -1.333e-5
-0.235, 4.062e-6, -1.312e-5
-0.240, 4.393e-6, -1.291e-5
-0.245, 4.247e-6, -1.269e-5
-0.250, 1.045e-6, -1.264e-5

Segment 5:
-0.245, -8.878e-7, -1.269e-5
-0.240, -1.463e-6, -1.276e-5
-0.235, -1.775e-6, -1.285e-5
-0.230, -1.651e-6, -1.293e-5
-0.225, -1.898e-6, -1.302e-5
-0.220, -2.059e-6, -1.313e-5
-0.215, -1.830e-6, -1.322e-5
-0.210, -1.968e-6, -1.332e-5
-0.205, -2.100e-6, -1.342e-5
-0.200, -1.849e-6, -1.351e-5
-0.195, -1.945e-6, -1.361e-5
-0.190, -2.031e-6, -1.371e-5
-0.185, -1.758e-6, -1.380e-5
-0.180, -1.780e-6, -1.389e-5
-0.175, -1.843e-6, -1.398e-5
-0.170, -1.604e-6, -1.406e-5
-0.165, -1.615e-6, -1.414e-5
-0.160, -1.691e-6, -1.423e-5
-0.155, -1.497e-6, -1.430e-5
-0.150, -1.525e-6, -1.438e-5
-0.145, -1.621e-6, -1.446e-5
-0.140, -1.480e-6, -1.453e-5
-0.135, -1.503e-6, -1.461e-5
-0.130, -1.626e-6, -1.469e-5
-0.125, -1.503e-6, -1.477e-5
-0.120, -1.528e-6, -1.484e-5
-0.115, -1.683e-6, -1.493e-5
-0.110, -1.561e-6, -1.500e-5
-0.105, -1.590e-6, -1.508e-5
-0.100, -1.770e-6, -1.517e-5
-0.095, -1.663e-6, -1.526e-5
-0.090, -1.701e-6, -1.534e-5
-0.085, -1.916e-6, -1.544e-5
-0.080, -1.830e-6, -1.553e-5
-0.075, -1.844e-6, -1.562e-5
-0.070, -2.072e-6, -1.572e-5
-0.065, -1.937e-6, -1.582e-5
-0.060, -1.832e-6, -1.591e-5
-0.055, -1.927e-6, -1.601e-5
-0.050, -1.674e-6, -1.609e-5
-0.045, -1.456e-6, -1.616e-5
-0.040, -1.427e-6, -1.624e-5
-0.035, -1.170e-6, -1.629e-5
-0.030, -9.818e-7, -1.634e-5
-0.025, -9.307e-7, -1.639e-5
-0.020, -7.776e-7, -1.643e-5
-0.015, -6.551e-7, -1.646e-5
-0.010, -6.400e-7, -1.649e-5
-0.005, -5.500e-7, -1.652e-5
-0.000, -4.701e-7, -1.654e-5
0.005, -4.755e-7, -1.657e-5
0.010, -4.210e-7, -1.659e-5
0.015, -3.676e-7, -1.661e-5
0.020, -3.733e-7, -1.663e-5
0.025, -3.061e-7, -1.664e-5
0.030, -2.087e-7, -1.665e-5
0.035, -2.285e-7, -1.666e-5
0.040, -1.950e-7, -1.667e-5
0.045, -1.612e-7, -1.668e-5
0.050, -1.741e-7, -1.669e-5
0.055, -1.627e-7, -1.670e-5
0.060, -1.389e-7, -1.671e-5
0.065, -1.547e-7, -1.671e-5
0.070, -1.494e-7, -1.672e-5
0.075, -1.218e-7, -1.673e-5
0.080, -1.419e-7, -1.673e-5
0.085, -1.442e-7, -1.674e-5
0.090, -1.216e-7, -1.675e-5
0.095, -1.390e-7, -1.675e-5
0.100, -1.476e-7, -1.676e-5
0.105, -1.221e-7, -1.677e-5
0.110, -1.405e-7, -1.677e-5
0.115, -1.493e-7, -1.678e-5
0.120, -1.265e-7, -1.679e-5
0.125, -1.399e-7, -1.680e-5
0.130, -1.497e-7, -1.680e-5
0.135, -1.272e-7, -1.681e-5
0.140, -1.465e-7, -1.682e-5
0.145, -1.551e-7, -1.682e-5
0.150, -1.356e-7, -1.683e-5
0.155, -1.479e-7, -1.684e-5
0.160, -1.580e-7, -1.685e-5
0.165, -1.420e-7, -1.685e-5
0.170, -1.541e-7, -1.686e-5
0.175, -1.602e-7, -1.687e-5
0.180, -1.507e-7, -1.688e-5
0.185, -1.576e-7, -1.688e-5
0.190, -1.637e-7, -1.689e-5
0.195, -1.568e-7, -1.690e-5
0.200, -1.605e-7, -1.691e-5
0.205, -1.722e-7, -1.692e-5
0.210, -1.608e-7, -1.693e-5
0.215, -1.633e-7, -1.693e-5
0.220, -1.781e-7, -1.694e-5
0.225, -1.641e-7, -1.695e-5
0.230, -1.672e-7, -1.696e-5
0.235, -1.861e-7, -1.697e-5
0.240, -1.715e-7, -1.698e-5
0.245, -1.736e-7, -1.699e-5
0.250, -1.962e-7, -1.700e-5
0.255, -1.839e-7, -1.700e-5
0.260, -1.841e-7, -1.701e-5
0.265, -2.042e-7, -1.702e-5
0.270, -1.961e-7, -1.703e-5
0.275, -1.944e-7, -1.704e-5
0.280, -2.089e-7, -1.705e-5
0.285, -2.041e-7, -1.706e-5
0.290, -2.027e-7, -1.707e-5
0.295, -2.265e-7, -1.709e-5
0.300, -2.159e-7, -1.710e-5
0.305, -2.149e-7, -1.711e-5
0.310, -2.631e-7, -1.712e-5
0.315, -2.588e-7, -1.713e-5
0.320, -2.352e-7, -1.715e-5
0.325, -3.136e-7, -1.716e-5
0.330, -3.113e-7, -1.718e-5
0.335, -2.931e-7, -1.719e-5
0.340, -3.518e-7, -1.721e-5
0.345, -3.546e-7, -1.723e-5
0.350, -3.491e-7, -1.724e-5
0.355, -3.675e-7, -1.726e-5
0.360, -3.729e-7, -1.728e-5
0.365, -3.641e-7, -1.730e-5
0.370, -3.948e-7, -1.732e-5
0.375, -4.025e-7, -1.734e-5
0.380, -3.976e-7, -1.736e-5
0.385, -4.110e-7, -1.738e-5
0.390, -4.254e-7, -1.740e-5
0.395, -4.157e-7, -1.742e-5
0.400, -4.475e-7, -1.744e-5
0.405, -4.579e-7, -1.747e-5
0.410, -4.548e-7, -1.749e-5
0.415, -4.845e-7, -1.751e-5
0.420, -5.048e-7, -1.754e-5
0.425, -4.996e-7, -1.756e-5
0.430, -5.337e-7, -1.759e-5
0.435, -5.614e-7, -1.762e-5
0.440, -5.561e-7, -1.765e-5
0.445, -5.937e-7, -1.768e-5
0.450, -6.325e-7, -1.771e-5
0.455, -6.301e-7, -1.774e-5
0.460, -6.719e-7, -1.777e-5
0.465, -7.269e-7, -1.781e-5
0.470, -7.340e-7, -1.785e-5
0.475, -7.890e-7, -1.789e-5
0.480, -8.597e-7, -1.793e-5
0.485, -8.759e-7, -1.797e-5
0.490, -9.520e-7, -1.802e-5
0.495, -1.052e-6, -1.807e-5
0.500, -1.088e-6, -1.813e-5
0.505, -1.168e-6, -1.819e-5
0.510, -1.297e-6, -1.825e-5
0.515, -1.338e-6, -1.832e-5
0.520, -1.402e-6, -1.839e-5
0.525, -1.530e-6, -1.846e-5
0.530, -1.550e-6, -1.854e-5
0.535, -1.579e-6, -1.862e-5
0.540, -1.694e-6, -1.870e-5
0.545, -1.704e-6, -1.879e-5
0.550, -1.713e-6, -1.888e-5
0.555, -1.814e-6, -1.897e-5
0.560, -1.814e-6, -1.906e-5
0.565, -1.812e-6, -1.915e-5
0.570, -1.905e-6, -1.924e-5
0.575, -1.913e-6, -1.934e-5
0.580, -1.894e-6, -1.943e-5
0.585, -1.997e-6, -1.953e-5
0.590, -2.000e-6, -1.963e-5
0.595, -1.981e-6, -1.973e-5
0.600, -2.063e-6, -1.984e-5
0.605, -2.074e-6, -1.994e-5
0.610, -2.046e-6, -2.004e-5
0.615, -2.131e-6, -2.015e-5
0.620, -2.144e-6, -2.025e-5
0.625, -2.111e-6, -2.036e-5
0.630, -2.177e-6, -2.047e-5
0.635, -2.195e-6, -2.058e-5
0.640, -2.153e-6, -2.069e-5
0.645, -2.211e-6, -2.080e-5
0.650, -2.235e-6, -2.091e-5
0.655, -2.191e-6, -2.102e-5
0.660, -2.244e-6, -2.113e-5
0.665, -2.270e-6, -2.124e-5
0.670, -2.227e-6, -2.136e-5
0.675, -2.263e-6, -2.147e-5
0.680, -2.296e-6, -2.158e-5
0.685, -2.240e-6, -2.170e-5
0.690, -2.277e-6, -2.181e-5
0.695, -2.311e-6, -2.192e-5
0.700, -2.256e-6, -2.204e-5
0.705, -2.295e-6, -2.215e-5
0.710, -2.327e-6, -2.227e-5
0.715, -2.276e-6, -2.238e-5
0.720, -2.303e-6, -2.250e-5
0.725, -2.336e-6, -2.261e-5
0.730, -2.285e-6, -2.273e-5
0.735, -2.305e-6, -2.284e-5
0.740, -2.337e-6, -2.296e-5
0.745, -2.290e-6, -2.308e-5
0.750, -2.301e-6, -2.319e-5
0.755, -2.339e-6, -2.331e-5
0.760, -2.292e-6, -2.342e-5
0.765, -2.304e-6, -2.354e-5
0.770, -2.339e-6, -2.365e-5
0.775, -2.300e-6, -2.377e-5
0.780, -2.305e-6, -2.388e-5
0.785, -2.346e-6, -2.400e-5
0.790, -2.308e-6, -2.412e-5
0.795, -2.312e-6, -2.423e-5
0.800, -2.353e-6, -2.435e-5
0.805, -2.323e-6, -2.447e-5
0.810, -2.324e-6, -2.458e-5
0.815, -2.365e-6, -2.470e-5
0.820, -2.342e-6, -2.482e-5
0.825, -2.342e-6, -2.494e-5
0.830, -2.384e-6, -2.505e-5
0.835, -2.368e-6, -2.517e-5
0.840, -2.364e-6, -2.529e-5
0.845, -2.412e-6, -2.541e-5
0.850, -2.402e-6, -2.553e-5
0.855, -2.399e-6, -2.565e-5
0.860, -2.440e-6, -2.577e-5
0.865, -2.435e-6, -2.590e-5
0.870, -2.430e-6, -2.602e-5
0.875, -2.477e-6, -2.614e-5
0.880, -2.477e-6, -2.626e-5
0.885, -2.465e-6, -2.639e-5
0.890, -2.514e-6, -2.651e-5
0.895, -2.513e-6, -2.664e-5
0.900, -2.505e-6, -2.676e-5
0.905, -2.549e-6, -2.689e-5
0.910, -2.555e-6, -2.702e-5
0.915, -2.548e-6, -2.715e-5
0.920, -2.587e-6, -2.728e-5
0.925, -2.600e-6, -2.741e-5
0.930, -2.583e-6, -2.754e-5
0.935, -2.621e-6, -2.767e-5
0.940, -2.633e-6, -2.780e-5
0.945, -2.617e-6, -2.793e-5
0.950, -2.652e-6, -2.806e-5
0.955, -2.671e-6, -2.820e-5
0.960, -2.650e-6, -2.833e-5
0.965, -2.691e-6, -2.846e-5
0.970, -2.711e-6, -2.860e-5
0.975, -2.693e-6, -2.873e-5
0.980, -2.725e-6, -2.887e-5
0.985, -2.747e-6, -2.901e-5
0.990, -2.727e-6, -2.914e-5
0.995, -2.751e-6, -2.928e-5
1.000, -2.772e-6, -2.942e-5
1.005, -2.750e-6, -2.956e-5
1.010, -2.776e-6, -2.969e-5
1.015, -2.800e-6, -2.983e-5
1.020, -2.782e-6, -2.997e-5
1.025, -2.806e-6, -3.011e-5
1.030, -2.828e-6, -3.026e-5
1.035, -2.807e-6, -3.040e-5
1.040, -2.822e-6, -3.054e-5
1.045, -2.848e-6, -3.068e-5
1.050, -2.827e-6, -3.082e-5
1.055, -2.840e-6, -3.096e-5
1.060, -2.873e-6, -3.111e-5
1.065, -2.849e-6, -3.125e-5
1.070, -2.860e-6, -3.139e-5
1.075, -2.896e-6, -3.154e-5
1.080, -2.878e-6, -3.168e-5
1.085, -2.889e-6, -3.183e-5
1.090, -2.924e-6, -3.197e-5
1.095, -2.903e-6, -3.212e-5
1.100, -2.912e-6, -3.226e-5
1.105, -2.944e-6, -3.241e-5
1.110, -2.939e-6, -3.256e-5
1.115, -2.944e-6, -3.270e-5
1.120, -2.982e-6, -3.285e-5
1.125, -2.979e-6, -3.300e-5
1.130, -2.984e-6, -3.315e-5
1.135, -3.020e-6, -3.330e-5
1.140, -3.025e-6, -3.345e-5
1.145, -3.030e-6, -3.360e-5
1.150, -3.082e-6, -3.376e-5
1.155, -3.089e-6, -3.391e-5
1.160, -3.097e-6, -3.407e-5
1.165, -3.150e-6, -3.423e-5
1.170, -3.172e-6, -3.438e-5
1.175, -3.188e-6, -3.454e-5
1.180, -3.247e-6, -3.471e-5
1.185, -3.282e-6, -3.487e-5
1.190, -3.303e-6, -3.503e-5
1.195, -3.371e-6, -3.520e-5
1.200, -3.011e-6, -3.535e-5

Segment 6:
1.195, -2.439e-6, -3.548e-5
1.190, -2.086e-6, -3.558e-5
1.185, -1.780e-6, -3.567e-5
1.180, -1.543e-6, -3.575e-5
1.175, -1.378e-6, -3.582e-5
1.170, -1.226e-6, -3.588e-5
1.165, -1.085e-6, -3.593e-5
1.160, -1.002e-6, -3.598e-5
1.155, -9.079e-7, -3.603e-5
1.150, -8.179e-7, -3.607e-5
1.145, -7.707e-7, -3.611e-5
1.140, -7.040e-7, -3.614e-5
1.135, -6.469e-7, -3.617e-5
1.130, -6.112e-7, -3.620e-5
1.125, -5.739e-7, -3.623e-5
1.120, -5.220e-7, -3.626e-5
1.115, -5.040e-7, -3.628e-5
1.110, -4.747e-7, -3.631e-5
1.105, -4.397e-7, -3.633e-5
1.100, -4.258e-7, -3.635e-5
1.095, -4.060e-7, -3.637e-5
1.090, -3.677e-7, -3.639e-5
1.085, -3.646e-7, -3.641e-5
1.080, -3.467e-7, -3.643e-5
1.075, -2.402e-7, -3.644e-5
1.070, -2.324e-7, -3.645e-5
1.065, -2.152e-7, -3.646e-5
1.060, -1.751e-7, -3.647e-5
1.055, -1.773e-7, -3.648e-5
1.050, -1.691e-7, -3.649e-5
1.045, -1.446e-7, -3.649e-5
1.040, -1.467e-7, -3.650e-5
1.035, -1.366e-7, -3.651e-5
1.030, -1.073e-7, -3.651e-5
1.025, -1.088e-7, -3.652e-5
1.020, -1.052e-7, -3.652e-5
1.015, -7.516e-8, -3.653e-5
1.010, -7.853e-8, -3.653e-5
1.005, -7.606e-8, -3.653e-5
1.000, -5.778e-8, -3.654e-5
0.995, -5.813e-8, -3.654e-5
0.990, -5.719e-8, -3.654e-5
0.985, -2.315e-8, -3.654e-5
0.980, -2.300e-8, -3.655e-5
0.975, -2.761e-8, -3.655e-5
0.970, -4.093e-9, -3.655e-5
0.965, -5.250e-9, -3.655e-5
0.960, -7.004e-9, -3.655e-5
0.955, 2.407e-8, -3.655e-5
0.950, 2.633e-8, -3.655e-5
0.945, 2.089e-8, -3.654e-5
0.940, 3.775e-8, -3.654e-5
0.935, 4.097e-8, -3.654e-5
0.930, 3.667e-8, -3.654e-5
0.925, 6.338e-8, -3.654e-5
0.920, 7.295e-8, -3.653e-5
0.915, 5.916e-8, -3.653e-5
0.910, 8.629e-8, -3.652e-5
0.905, 9.164e-8, -3.652e-5
0.900, 8.409e-8, -3.652e-5
0.895, 1.051e-7, -3.651e-5
0.890, 1.204e-7, -3.650e-5
0.885, 1.063e-7, -3.650e-5
0.880, 1.292e-7, -3.649e-5
0.875, 1.371e-7, -3.649e-5
0.870, 1.313e-7, -3.648e-5
0.865, 1.483e-7, -3.647e-5
0.860, 1.693e-7, -3.646e-5
0.855, 1.508e-7, -3.646e-5
0.850, 1.760e-7, -3.645e-5
0.845, 1.862e-7, -3.644e-5
0.840, 1.804e-7, -3.643e-5
0.835, 1.969e-7, -3.642e-5
0.830, 2.209e-7, -3.641e-5
0.825, 2.051e-7, -3.640e-5
0.820, 2.220e-7, -3.639e-5
0.815, 2.398e-7, -3.637e-5
0.810, 2.329e-7, -3.636e-5
0.805, 2.497e-7, -3.635e-5
0.800, 2.770e-7, -3.634e-5
0.795, 2.644e-7, -3.632e-5
0.790, 2.802e-7, -3.631e-5
0.785, 3.093e-7, -3.629e-5
0.780, 2.970e-7, -3.628e-5
0.775, 3.120e-7, -3.626e-5
0.770, 3.374e-7, -3.625e-5
0.765, 3.306e-7, -3.623e-5
0.760, 3.407e-7, -3.621e-5
0.755, 3.768e-7, -3.619e-5
0.750, 3.735e-7, -3.618e-5
0.745, 3.775e-7, -3.616e-5
0.740, 4.213e-7, -3.614e-5
0.735, 4.180e-7, -3.611e-5
0.730, 4.240e-7, -3.609e-5
0.725, 4.613e-7, -3.607e-5
0.720, 4.641e-7, -3.605e-5
0.715, 4.675e-7, -3.602e-5
0.710, 5.134e-7, -3.600e-5
0.705, 5.194e-7, -3.597e-5
0.700, 5.205e-7, -3.595e-5
0.695, 5.618e-7, -3.592e-5
0.690, 5.708e-7, -3.589e-5
0.685, 5.762e-7, -3.586e-5
0.680, 6.221e-7, -3.583e-5
0.675, 6.274e-7, -3.580e-5
0.670, 6.360e-7, -3.577e-5
0.665, 6.872e-7, -3.573e-5
0.660, 7.092e-7, -3.570e-5
0.655, 7.145e-7, -3.566e-5
0.650, 7.644e-7, -3.562e-5
0.645, 7.859e-7, -3.558e-5
0.640, 7.949e-7, -3.554e-5
0.635, 8.454e-7, -3.550e-5
0.630, 8.745e-7, -3.546e-5
0.625, 8.869e-7, -3.541e-5
0.620, 9.447e-7, -3.537e-5
0.615, 9.865e-7, -3.532e-5
0.610, 9.997e-7, -3.527e-5
0.605, 1.059e-6, -3.521e-5
0.600, 1.111e-6, -3.516e-5
0.595, 1.124e-6, -3.510e-5
0.590, 1.196e-6, -3.504e-5
0.585, 1.268e-6, -3.498e-5
0.580, 1.295e-6, -3.491e-5
0.575, 1.361e-6, -3.485e-5
0.570, 1.444e-6, -3.477e-5
0.565, 1.472e-6, -3.470e-5
0.560, 1.559e-6, -3.462e-5
0.555, 1.645e-6, -3.454e-5
0.550, 1.693e-6, -3.446e-5
0.545, 1.785e-6, -3.437e-5
0.540, 1.893e-6, -3.427e-5
0.535, 1.954e-6, -3.417e-5
0.530, 2.059e-6, -3.407e-5
0.525, 2.195e-6, -3.396e-5
0.520, 2.280e-6, -3.385e-5
0.515, 2.399e-6, -3.373e-5
0.510, 2.572e-6, -3.360e-5
0.505, 2.679e-6, -3.346e-5
0.500, 2.826e-6, -3.332e-5
0.495, 3.029e-6, -3.317e-5
0.490, 3.175e-6, -3.301e-5
0.485, 3.328e-6, -3.285e-5
0.480, 3.568e-6, -3.267e-5
0.475, 3.746e-6, -3.248e-5
0.470, 3.933e-6, -3.228e-5
0.465, 4.201e-6, -3.207e-5
0.460, 4.431e-6, -3.185e-5
0.455, 4.619e-6, -3.162e-5
0.450, 4.907e-6, -3.138e-5
0.445, 5.124e-6, -3.112e-5
0.440, 5.301e-6, -3.086e-5
0.435, 5.559e-6, -3.058e-5
0.430, 5.746e-6, -3.029e-5
0.425, 5.858e-6, -3.000e-5
0.420, 6.053e-6, -2.969e-5
0.415, 6.157e-6, -2.939e-5
0.410, 6.166e-6, -2.908e-5
0.405, 6.232e-6, -2.877e-5
0.400, 6.214e-6, -2.846e-5
0.395, 6.090e-6, -2.815e-5
0.390, 6.021e-6, -2.785e-5
0.385, 5.866e-6, -2.756e-5
0.380, 5.623e-6, -2.728e-5
0.375, 5.443e-6, -2.700e-5
0.370, 5.210e-6, -2.674e-5
0.365, 4.903e-6, -2.650e-5
0.360, 4.666e-6, -2.626e-5
0.355, 4.398e-6, -2.604e-5
0.350, 4.074e-6, -2.584e-5
0.345, 3.839e-6, -2.565e-5
0.340, 3.595e-6, -2.547e-5
0.335, 3.317e-6, -2.530e-5
0.330, 3.112e-6, -2.515e-5
0.325, 2.911e-6, -2.500e-5
0.320, 2.685e-6, -2.487e-5
0.315, 2.515e-6, -2.474e-5
0.310, 2.362e-6, -2.462e-5
0.305, 2.184e-6, -2.452e-5
0.300, 2.063e-6, -2.441e-5
0.295, 1.942e-6, -2.431e-5
0.290, 1.803e-6, -2.422e-5
0.285, 1.716e-6, -2.414e-5
0.280, 1.623e-6, -2.406e-5
0.275, 1.523e-6, -2.398e-5
0.270, 1.453e-6, -2.391e-5
0.265, 1.384e-6, -2.384e-5
0.260, 1.306e-6, -2.377e-5
0.255, 1.255e-6, -2.371e-5
0.250, 1.197e-6, -2.365e-5
0.245, 1.120e-6, -2.360e-5
0.240, 1.085e-6, -2.354e-5
0.235, 1.045e-6, -2.349e-5
0.230, 9.880e-7, -2.344e-5
0.225, 9.631e-7, -2.339e-5
0.220, 9.366e-7, -2.334e-5
0.215, 8.887e-7, -2.330e-5
0.210, 8.647e-7, -2.326e-5
0.205, 8.490e-7, -2.321e-5
0.200, 8.086e-7, -2.317e-5
0.195, 7.966e-7, -2.313e-5
0.190, 7.829e-7, -2.310e-5
0.185, 7.483e-7, -2.306e-5
0.180, 7.317e-7, -2.302e-5
0.175, 7.233e-7, -2.299e-5
0.170, 7.032e-7, -2.295e-5
0.165, 6.933e-7, -2.292e-5
0.160, 6.844e-7, -2.288e-5
0.155, 6.652e-7, -2.285e-5
0.150, 6.610e-7, -2.281e-5
0.145, 6.635e-7, -2.278e-5
0.140, 6.326e-7, -2.275e-5
0.135, 6.280e-7, -2.272e-5
0.130, 6.319e-7, -2.269e-5
0.125, 6.185e-7, -2.266e-5
0.120, 6.176e-7, -2.263e-5
0.115, 6.212e-7, -2.259e-5
0.110, 6.034e-7, -2.256e-5
0.105, 5.988e-7, -2.253e-5
0.100, 6.160e-7, -2.250e-5
0.095, 5.968e-7, -2.247e-5
0.090, 5.961e-7, -2.244e-5
0.085, 6.165e-7, -2.241e-5
0.080, 6.046e-7, -2.238e-5
0.075, 6.049e-7, -2.235e-5
0.070, 6.214e-7, -2.232e-5
0.065, 6.146e-7, -2.229e-5
0.060, 6.119e-7, -2.226e-5
0.055, 6.296e-7, -2.223e-5
0.050, 6.214e-7, -2.220e-5
0.045, 6.231e-7, -2.217e-5
0.040, 6.559e-7, -2.213e-5
0.035, 6.505e-7, -2.210e-5
0.030, 6.501e-7, -2.207e-5
0.025, 6.922e-7, -2.203e-5
0.020, 6.916e-7, -2.200e-5
0.015, 7.035e-7, -2.196e-5
0.010, 7.542e-7, -2.193e-5
0.005, 7.633e-7, -2.189e-5
0.000, 7.733e-7, -2.185e-5
-0.005, 8.482e-7, -2.181e-5
-0.010, 8.766e-7, -2.176e-5
-0.015, 8.954e-7, -2.172e-5
-0.020, 9.993e-7, -2.167e-5
-0.025, 1.056e-6, -2.162e-5
-0.030, 1.087e-6, -2.156e-5
-0.035, 1.266e-6, -2.150e-5
-0.040, 1.362e-6, -2.143e-5
-0.045, 1.394e-6, -2.136e-5
-0.050, 1.605e-6, -2.128e-5
-0.055, 1.731e-6, -2.119e-5
-0.060, 1.728e-6, -2.111e-5
-0.065, 1.943e-6, -2.101e-5
-0.070, 2.045e-6, -2.091e-5
-0.075, 1.963e-6, -2.081e-5
-0.080, 2.145e-6, -2.070e-5
-0.085, 2.219e-6, -2.059e-5
-0.090, 2.096e-6, -2.049e-5
-0.095, 2.225e-6, -2.038e-5
-0.100, 2.305e-6, -2.026e-5
-0.105, 2.147e-6, -2.015e-5
-0.110, 2.255e-6, -2.004e-5
-0.115, 2.323e-6, -1.992e-5
-0.120, 2.166e-6, -1.982e-5
-0.125, 2.246e-6, -1.970e-5
-0.130, 2.330e-6, -1.959e-5
-0.135, 2.192e-6, -1.948e-5
-0.140, 2.271e-6, -1.936e-5
-0.145, 2.390e-6, -1.924e-5
-0.150, 2.282e-6, -1.913e-5
-0.155, 2.381e-6, -1.901e-5
-0.160, 2.555e-6, -1.888e-5
-0.165, 2.477e-6, -1.876e-5
-0.170, 2.594e-6, -1.863e-5
-0.175, 2.840e-6, -1.849e-5
-0.180, 2.782e-6, -1.835e-5
-0.185, 2.911e-6, -1.820e-5
-0.190, 3.233e-6, -1.804e-5
-0.195, 3.197e-6, -1.788e-5
-0.200, 3.312e-6, -1.772e-5
-0.205, 3.685e-6, -1.753e-5
-0.210, 3.626e-6, -1.735e-5
-0.215, 3.697e-6, -1.717e-5
-0.220, 4.047e-6, -1.696e-5
-0.225, 3.979e-6, -1.676e-5
-0.230, 3.961e-6, -1.657e-5
-0.235, 4.324e-6, -1.635e-5
-0.240, 4.207e-6, -1.614e-5
-0.245, 4.138e-6, -1.593e-5
-0.250, 1.237e-6, -1.587e-5

Segment 7:
-0.245, -1.131e-6, -1.593e-5
-0.240, -1.644e-6, -1.601e-5
-0.235, -1.604e-6, -1.609e-5
-0.230, -1.862e-6, -1.618e-5
-0.225, -2.089e-6, -1.629e-5
-0.220, -1.892e-6, -1.638e-5
-0.215, -2.015e-6, -1.648e-5
-0.210, -2.158e-6, -1.659e-5
-0.205, -1.943e-6, -1.669e-5
-0.200, -2.005e-6, -1.679e-5
-0.195, -2.130e-6, -1.689e-5
-0.190, -1.889e-6, -1.699e-5
-0.185, -1.879e-6, -1.708e-5
-0.180, -1.961e-6, -1.718e-5
-0.175, -1.711e-6, -1.727e-5
-0.170, -1.689e-6, -1.735e-5
-0.165, -1.761e-6, -1.744e-5
-0.160, -1.564e-6, -1.752e-5
-0.155, -1.543e-6, -1.759e-5
-0.150, -1.653e-6, -1.768e-5
-0.145, -1.497e-6, -1.775e-5
-0.140, -1.498e-6, -1.783e-5
-0.135, -1.635e-6, -1.791e-5
-0.130, -1.513e-6, -1.798e-5
-0.125, -1.511e-6, -1.806e-5
-0.120, -1.679e-6, -1.814e-5
-0.115, -1.581e-6, -1.822e-5
-0.110, -1.559e-6, -1.830e-5
-0.105, -1.746e-6, -1.839e-5
-0.100, -1.667e-6, -1.847e-5
-0.095, -1.647e-6, -1.855e-5
-0.090, -1.889e-6, -1.865e-5
-0.085, -1.836e-6, -1.874e-5
-0.080, -1.805e-6, -1.883e-5
-0.075, -2.068e-6, -1.893e-5
-0.070, -2.015e-6, -1.903e-5
-0.065, -1.916e-6, -1.913e-5
-0.060, -2.069e-6, -1.923e-5
-0.055, -1.894e-6, -1.933e-5
-0.050, -1.635e-6, -1.941e-5
-0.045, -1.622e-6, -1.949e-5
-0.040, -1.385e-6, -1.956e-5
-0.035, -1.125e-6, -1.962e-5
-0.030, -1.070e-6, -1.967e-5
-0.025, -8.978e-7, -1.971e-5
-0.020, -7.306e-7, -1.975e-5
-0.015, -7.076e-7, -1.979e-5
-0.010, -6.181e-7, -1.982e-5
-0.005, -5.110e-7, -1.984e-5
-0.000, -5.049e-7, -1.987e-5
0.005, -4.550e-7, -1.989e-5
0.010, -3.883e-7, -1.991e-5
0.015, -3.921e-7, -1.993e-5
0.020, -3.607e-7, -1.995e-5
0.025, -2.249e-7, -1.996e-5
0.030, -2.653e-7, -1.997e-5
0.035, -2.265e-7, -1.998e-5
0.040, -1.702e-7, -1.999e-5
0.045, -1.768e-7, -2.000e-5
0.050, -1.720e-7, -2.001e-5
0.055, -1.420e-7, -2.002e-5
0.060, -1.507e-7, -2.002e-5
0.065, -1.485e-7, -2.003e-5
0.070, -1.181e-7, -2.004e-5
0.075, -1.314e-7, -2.004e-5
0.080, -1.395e-7, -2.005e-5
0.085, -1.138e-7, -2.006e-5
0.090, -1.256e-7, -2.006e-5
0.095, -1.365e-7, -2.007e-5
0.100, -1.168e-7, -2.008e-5
0.105, -1.282e-7, -2.008e-5
0.110, -1.432e-7, -2.009e-5
0.115, -1.215e-7, -2.010e-5
0.120, -1.315e-7, -2.010e-5
0.125, -1.476e-7, -2.011e-5
0.130, -1.254e-7, -2.012e-5
0.135, -1.379e-7, -2.012e-5
0.140, -1.560e-7, -2.013e-5
0.145, -1.386e-7, -2.014e-5
0.150, -1.454e-7, -2.015e-5
0.155, -1.581e-7, -2.015e-5
0.160, -1.451e-7, -2.016e-5
0.165, -1.492e-7, -2.017e-5
0.170, -1.602e-7, -2.018e-5
0.175, -1.523e-7, -2.018e-5
0.180, -1.532e-7, -2.019e-5
0.185, -1.617e-7, -2.020e-5
0.190, -1.536e-7, -2.021e-5
0.195, -1.532e-7, -2.021e-5
0.200, -1.624e-7, -2.022e-5
0.205, -1.591e-7, -2.023e-5
0.210, -1.570e-7, -2.024e-5
0.215, -1.659e-7, -2.025e-5
0.220, -1.612e-7, -2.025e-5
0.225, -1.609e-7, -2.026e-5
0.230, -1.740e-7, -2.027e-5
0.235, -1.658e-7, -2.028e-5
0.240, -1.636e-7, -2.029e-5
0.245, -1.849e-7, -2.030e-5
0.250, -1.749e-7, -2.031e-5
0.255, -1.713e-7, -2.031e-5
0.260, -1.953e-7, -2.032e-5
0.265, -1.885e-7, -2.033e-5
0.270, -1.783e-7, -2.034e-5
0.275, -2.019e-7, -2.035e-5
0.280, -2.000e-7, -2.036e-5
0.285, -1.937e-7, -2.037e-5
0.290, -2.087e-7, -2.038e-5
0.295, -2.090e-7, -2.039e-5
0.300, -2.041e-7, -2.040e-5
0.305, -2.309e-7, -2.041e-5
0.310, -2.363e-7, -2.043e-5
0.315, -2.144e-7, -2.044e-5
0.320, -2.734e-7, -2.045e-5
0.325, -3.025e-7, -2.047e-5
0.330, -2.498e-7, -2.048e-5
0.335, -3.321e-7, -2.050e-5
0.340, -3.481e-7, -2.051e-5
0.345, -3.311e-7, -2.053e-5
0.350, -3.549e-7, -2.055e-5
0.355, -3.605e-7, -2.057e-5
0.360, -3.546e-7, -2.058e-5
0.365, -3.704e-7, -2.060e-5
0.370, -3.902e-7, -2.062e-5
0.375, -3.738e-7, -2.064e-5
0.380, -3.997e-7, -2.066e-5
0.385, -4.058e-7, -2.068e-5
0.390, -4.037e-7, -2.070e-5
0.395, -4.193e-7, -2.072e-5
0.400, -4.465e-7, -2.074e-5
0.405, -4.379e-7, -2.077e-5
0.410, -4.557e-7, -2.079e-5
0.415, -4.802e-7, -2.081e-5
0.420, -4.748e-7, -2.084e-5
0.425, -4.954e-7, -2.086e-5
0.430, -5.352e-7, -2.089e-5
0.435, -5.285e-7, -2.091e-5
0.440, -5.536e-7, -2.094e-5
0.445, -5.978e-7, -2.097e-5
0.450, -5.980e-7, -2.100e-5
0.455, -6.257e-7, -2.103e-5
0.460, -6.815e-7, -2.107e-5
0.465, -6.884e-7, -2.110e-5
0.470, -7.264e-7, -2.114e-5
0.475, -8.071e-7, -2.118e-5
0.480, -8.320e-7, -2.122e-5
0.485, -8.810e-7, -2.126e-5
0.490, -9.886e-7, -2.131e-5
0.495, -1.038e-6, -2.136e-5
0.500, -1.096e-6, -2.142e-5
0.505, -1.228e-6, -2.148e-5
0.510, -1.297e-6, -2.155e-5
0.515, -1.346e-6, -2.161e-5
0.520, -1.484e-6, -2.169e-5
0.525, -1.547e-6, -2.176e-5
0.530, -1.561e-6, -2.184e-5
0.535, -1.674e-6, -2.193e-5
0.540, -1.720e-6, -2.201e-5
0.545, -1.712e-6, -2.210e-5
0.550, -1.806e-6, -2.219e-5
0.555, -1.840e-6, -2.228e-5
0.560, -1.809e-6, -2.237e-5
0.565, -1.898e-6, -2.247e-5
0.570, -1.940e-6, -2.256e-5
0.575, -1.897e-6, -2.266e-5
0.580, -1.979e-6, -2.276e-5
0.585, -2.021e-6, -2.286e-5
0.590, -1.974e-6, -2.296e-5
0.595, -2.040e-6, -2.306e-5
0.600, -2.087e-6, -2.316e-5
0.605, -2.042e-6, -2.326e-5
0.610, -2.101e-6, -2.337e-5
0.615, -2.156e-6, -2.348e-5
0.620, -2.102e-6, -2.358e-5
0.625, -2.154e-6, -2.369e-5
0.630, -2.197e-6, -2.380e-5
0.635, -2.151e-6, -2.391e-5
0.640, -2.180e-6, -2.402e-5
0.645, -2.234e-6, -2.413e-5
0.650, -2.188e-6, -2.424e-5
0.655, -2.220e-6, -2.435e-5
0.660, -2.267e-6, -2.446e-5
0.665, -2.224e-6, -2.457e-5
0.670, -2.239e-6, -2.469e-5
0.675, -2.295e-6, -2.480e-5
0.680, -2.243e-6, -2.491e-5
0.685, -2.253e-6, -2.502e-5
0.690, -2.301e-6, -2.514e-5
0.695, -2.255e-6, -2.525e-5
0.700, -2.261e-6, -2.537e-5
0.705, -2.318e-6, -2.548e-5
0.710, -2.269e-6, -2.559e-5
0.715, -2.269e-6, -2.571e-5
0.720, -2.323e-6, -2.582e-5
0.725, -2.281e-6, -2.594e-5
0.730, -2.274e-6, -2.605e-5
0.735, -2.321e-6, -2.617e-5
0.740, -2.280e-6, -2.628e-5
0.745, -2.264e-6, -2.640e-5
0.750, -2.313e-6, -2.651e-5
0.755, -2.285e-6, -2.663e-5
0.760, -2.263e-6, -2.674e-5
0.765, -2.312e-6, -2.685e-5
0.770, -2.285e-6, -2.697e-5
0.775, -2.262e-6, -2.708e-5
0.780, -2.311e-6, -2.720e-5
0.785, -2.295e-6, -2.731e-5
0.790, -2.267e-6, -2.743e-5
0.795, -2.313e-6, -2.754e-5
0.800, -2.303e-6, -2.766e-5
0.805, -2.281e-6, -2.777e-5
0.810, -2.324e-6, -2.789e-5
0.815, -2.321e-6, -2.800e-5
0.820, -2.294e-6, -2.812e-5
0.825, -2.340e-6, -2.823e-5
0.830, -2.347e-6, -2.835e-5
0.835, -2.320e-6, -2.847e-5
0.840, -2.360e-6, -2.859e-5
0.845, -2.365e-6, -2.870e-5
0.850, -2.348e-6, -2.882e-5
0.855, -2.387e-6, -2.894e-5
0.860, -2.402e-6, -2.906e-5
0.865, -2.378e-6, -2.918e-5
0.870, -2.416e-6, -2.930e-5
0.875, -2.435e-6, -2.942e-5
0.880, -2.415e-6, -2.954e-5
0.885, -2.447e-6, -2.966e-5
0.890, -2.475e-6, -2.979e-5
0.895, -2.447e-6, -2.991e-5
0.900, -2.485e-6, -3.004e-5
0.905, -2.513e-6, -3.016e-5
0.910, -2.495e-6, -3.029e-5
0.915, -2.522e-6, -3.041e-5
0.920, -2.553e-6, -3.054e-5
0.925, -2.533e-6, -3.067e-5
0.930, -2.554e-6, -3.079e-5
0.935, -2.594e-6, -3.092e-5
0.940, -2.565e-6, -3.105e-5
0.945, -2.590e-6, -3.118e-5
0.950, -2.622e-6, -3.131e-5
0.955, -2.604e-6, -3.144e-5
0.960, -2.620e-6, -3.157e-5
0.965, -2.656e-6, -3.171e-5
0.970, -2.638e-6, -3.184e-5
0.975, -2.652e-6, -3.197e-5
0.980, -2.693e-6, -3.211e-5
0.985, -2.676e-6, -3.224e-5
0.990, -2.685e-6, -3.237e-5
0.995, -2.725e-6, -3.251e-5
1.000, -2.705e-6, -3.264e-5
1.005, -2.710e-6, -3.278e-5
1.010, -2.747e-6, -3.292e-5
1.015, -2.740e-6, -3.305e-5
1.020, -2.739e-6, -3.319e-5
1.025, -2.777e-6, -3.333e-5
1.030, -2.759e-6, -3.347e-5
1.035, -2.758e-6, -3.361e-5
1.040, -2.795e-6, -3.375e-5
1.045, -2.789e-6, -3.389e-5
1.050, -2.780e-6, -3.402e-5
1.055, -2.812e-6, -3.417e-5
1.060, -2.807e-6, -3.431e-5
1.065, -2.801e-6, -3.445e-5
1.070, -2.835e-6, -3.459e-5
1.075, -2.833e-6, -3.473e-5
1.080, -2.819e-6, -3.487e-5
1.085, -2.854e-6, -3.501e-5
1.090, -2.854e-6, -3.516e-5
1.095, -2.845e-6, -3.530e-5
1.100, -2.881e-6, -3.544e-5
1.105, -2.890e-6, -3.559e-5
1.110, -2.876e-6, -3.573e-5
1.115, -2.914e-6, -3.588e-5
1.120, -2.927e-6, -3.602e-5
1.125, -2.918e-6, -3.617e-5
1.130, -2.949e-6, -3.632e-5
1.135, -2.969e-6, -3.646e-5
1.140, -2.960e-6, -3.661e-5
1.145, -3.000e-6, -3.676e-5
1.150, -3.030e-6, -3.691e-5
1.155, -3.023e-6, -3.706e-5
1.160, -3.065e-6, -3.722e-5
1.165, -3.101e-6, -3.737e-5
1.170, -3.107e-6, -3.753e-5
1.175, -3.154e-6, -3.769e-5
1.180, -3.196e-6, -3.785e-5
1.185, -3.212e-6, -3.801e-5
1.190, -3.270e-6, -3.817e-5
1.195, -3.332e-6, -3.834e-5
1.200, -2.949e-6, -3.848e-5

Segment 8:
1.195, -2.412e-6, -3.860e-5
1.190, -2.050e-6, -3.871e-5
1.185, -1.739e-6, -3.879e-5
1.180, -1.526e-6, -3.887e-5
1.175, -1.358e-6, -3.894e-5
1.170, -1.195e-6, -3.900e-5
1.165, -1.080e-6, -3.905e-5
1.160, -9.836e-7, -3.910e-5
1.155, -8.815e-7, -3.914e-5
1.150, -8.138e-7, -3.919e-5
1.145, -7.589e-7, -3.922e-5
1.140, -6.810e-7, -3.926e-5
1.135, -6.446e-7, -3.929e-5
1.130, -6.059e-7, -3.932e-5
1.125, -5.556e-7, -3.935e-5
1.120, -5.252e-7, -3.937e-5
1.115, -5.018e-7, -3.940e-5
1.110, -4.550e-7, -3.942e-5
1.105, -4.419e-7, -3.944e-5
1.100, -4.205e-7, -3.947e-5
1.095, -3.904e-7, -3.948e-5
1.090, -3.736e-7, -3.950e-5
1.085, -3.667e-7, -3.952e-5
1.080, -2.982e-7, -3.954e-5
1.075, -2.514e-7, -3.955e-5
1.070, -2.370e-7, -3.956e-5
1.065, -1.916e-7, -3.957e-5
1.060, -1.803e-7, -3.958e-5
1.055, -1.815e-7, -3.959e-5
1.050, -1.576e-7, -3.960e-5
1.045, -1.479e-7, -3.960e-5
1.040, -1.503e-7, -3.961e-5
1.035, -1.189e-7, -3.962e-5
1.030, -1.109e-7, -3.962e-5
1.025, -1.121e-7, -3.963e-5
1.020, -9.167e-8, -3.963e-5
1.015, -7.308e-8, -3.964e-5
1.010, -8.373e-8, -3.964e-5
1.005, -6.195e-8, -3.964e-5
1.000, -5.622e-8, -3.965e-5
0.995, -6.121e-8, -3.965e-5
0.990, -3.899e-8, -3.965e-5
0.985, -1.962e-8, -3.965e-5
0.980, -3.212e-8, -3.965e-5
0.975, -1.324e-8, -3.966e-5
0.970, 1.737e-9, -3.966e-5
0.965, -9.698e-9, -3.966e-5
0.960, 1.275e-8, -3.965e-5
0.955, 2.996e-8, -3.965e-5
0.950, 1.681e-8, -3.965e-5
0.945, 3.012e-8, -3.965e-5
0.940, 4.431e-8, -3.965e-5
0.935, 3.590e-8, -3.965e-5
0.930, 4.499e-8, -3.964e-5
0.925, 7.337e-8, -3.964e-5
0.920, 6.018e-8, -3.964e-5
0.915, 7.056e-8, -3.963e-5
0.910, 8.954e-8, -3.963e-5
0.905, 8.390e-8, -3.963e-5
0.900, 8.868e-8, -3.962e-5
0.895, 1.230e-7, -3.962e-5
0.890, 1.082e-7, -3.961e-5
0.885, 1.180e-7, -3.960e-5
0.880, 1.367e-7, -3.960e-5
0.875, 1.329e-7, -3.959e-5
0.870, 1.347e-7, -3.958e-5
0.865, 1.645e-7, -3.958e-5
0.860, 1.566e-7, -3.957e-5
0.855, 1.583e-7, -3.956e-5
0.850, 1.844e-7, -3.955e-5
0.845, 1.813e-7, -3.954e-5
0.840, 1.821e-7, -3.953e-5
0.835, 2.130e-7, -3.952e-5
0.830, 2.103e-7, -3.951e-5
0.825, 2.070e-7, -3.950e-5
0.820, 2.330e-7, -3.949e-5
0.815, 2.334e-7, -3.948e-5
0.810, 2.319e-7, -3.947e-5
0.805, 2.659e-7, -3.945e-5
0.800, 2.692e-7, -3.944e-5
0.795, 2.610e-7, -3.943e-5
0.790, 2.926e-7, -3.941e-5
0.785, 3.004e-7, -3.940e-5
0.780, 2.907e-7, -3.938e-5
0.775, 3.305e-7, -3.937e-5
0.770, 3.345e-7, -3.935e-5
0.765, 3.313e-7, -3.933e-5
0.760, 3.639e-7, -3.931e-5
0.755, 3.756e-7, -3.930e-5
0.750, 3.692e-7, -3.928e-5
0.745, 3.969e-7, -3.926e-5
0.740, 4.163e-7, -3.924e-5
0.735, 4.079e-7, -3.922e-5
0.730, 4.366e-7, -3.919e-5
0.725, 4.632e-7, -3.917e-5
0.720, 4.541e-7, -3.915e-5
0.715, 4.854e-7, -3.912e-5
0.710, 5.171e-7, -3.910e-5
0.705, 5.128e-7, -3.907e-5
0.700, 5.339e-7, -3.905e-5
0.695, 5.677e-7, -3.902e-5
0.690, 5.630e-7, -3.899e-5
0.685, 5.910e-7, -3.896e-5
0.680, 6.243e-7, -3.893e-5
0.675, 6.223e-7, -3.890e-5
0.670, 6.535e-7, -3.886e-5
0.665, 6.997e-7, -3.883e-5
0.660, 6.972e-7, -3.879e-5
0.655, 7.280e-7, -3.876e-5
0.650, 7.743e-7, -3.872e-5
0.645, 7.770e-7, -3.868e-5
0.640, 8.045e-7, -3.864e-5
0.635, 8.578e-7, -3.860e-5
0.630, 8.666e-7, -3.855e-5
0.625, 9.024e-7, -3.851e-5
0.620, 9.618e-7, -3.846e-5
0.615, 9.772e-7, -3.841e-5
0.610, 1.007e-6, -3.836e-5
0.605, 1.078e-6, -3.831e-5
0.600, 1.107e-6, -3.825e-5
0.595, 1.137e-6, -3.820e-5
0.590, 1.225e-6, -3.813e-5
0.585, 1.263e-6, -3.807e-5
0.580, 1.299e-6, -3.801e-5
0.575, 1.391e-6, -3.794e-5
0.570, 1.441e-6, -3.786e-5
0.565, 1.483e-6, -3.779e-5
0.560, 1.578e-6, -3.771e-5
0.555, 1.647e-6, -3.763e-5
0.550, 1.702e-6, -3.754e-5
0.545, 1.813e-6, -3.745e-5
0.540, 1.897e-6, -3.736e-5
0.535, 1.966e-6, -3.726e-5
0.530, 2.097e-6, -3.716e-5
0.525, 2.212e-6, -3.705e-5
0.520, 2.294e-6, -3.693e-5
0.515, 2.442e-6, -3.681e-5
0.510, 2.591e-6, -3.668e-5
0.505, 2.700e-6, -3.654e-5
0.500, 2.879e-6, -3.640e-5
0.495, 3.059e-6, -3.625e-5
0.490, 3.189e-6, -3.609e-5
0.485, 3.389e-6, -3.592e-5
0.480, 3.618e-6, -3.574e-5
0.475, 3.783e-6, -3.555e-5
0.470, 4.005e-6, -3.535e-5
0.465, 4.275e-6, -3.513e-5
0.460, 4.473e-6, -3.491e-5
0.455, 4.707e-6, -3.467e-5
0.450, 4.995e-6, -3.443e-5
0.445, 5.183e-6, -3.417e-5
0.440, 5.402e-6, -3.390e-5
0.435, 5.665e-6, -3.361e-5
0.430, 5.812e-6, -3.332e-5
0.425, 5.963e-6, -3.302e-5
0.420, 6.159e-6, -3.272e-5
0.415, 6.227e-6, -3.240e-5
0.410, 6.257e-6, -3.209e-5
0.405, 6.334e-6, -3.178e-5
0.400, 6.260e-6, -3.146e-5
0.395, 6.158e-6, -3.115e-5
0.390, 6.094e-6, -3.085e-5
0.385, 5.894e-6, -3.055e-5
0.380, 5.666e-6, -3.027e-5
0.375, 5.479e-6, -3.000e-5
0.370, 5.208e-6, -2.974e-5
0.365, 4.906e-6, -2.949e-5
0.360, 4.675e-6, -2.926e-5
0.355, 4.373e-6, -2.904e-5
0.350, 4.059e-6, -2.884e-5
0.345, 3.826e-6, -2.865e-5
0.340, 3.558e-6, -2.847e-5
0.335, 3.288e-6, -2.830e-5
0.330, 3.090e-6, -2.815e-5
0.325, 2.872e-6, -2.800e-5
0.320, 2.651e-6, -2.787e-5
0.315, 2.497e-6, -2.775e-5
0.310, 2.323e-6, -2.763e-5
0.305, 2.161e-6, -2.752e-5
0.300, 2.044e-6, -2.742e-5
0.295, 1.911e-6, -2.733e-5
0.290, 1.778e-6, -2.724e-5
0.285, 1.690e-6, -2.715e-5
0.280, 1.596e-6, -2.707e-5
0.275, 1.493e-6, -2.700e-5
0.270, 1.436e-6, -2.693e-5
0.265, 1.360e-6, -2.686e-5
0.260, 1.281e-6, -2.679e-5
0.255, 1.240e-6, -2.673e-5
0.250, 1.166e-6, -2.667e-5
0.245, 1.105e-6, -2.662e-5
0.240, 1.065e-6, -2.656e-5
0.235, 1.022e-6, -2.651e-5
0.230, 9.671e-7, -2.647e-5
0.225, 9.549e-7, -2.642e-5
0.220, 9.156e-7, -2.637e-5
0.215, 8.709e-7, -2.633e-5
0.210, 8.606e-7, -2.629e-5
0.205, 8.292e-7, -2.624e-5
0.200, 7.977e-7, -2.620e-5
0.195, 7.850e-7, -2.616e-5
0.190, 7.666e-7, -2.613e-5
0.185, 7.289e-7, -2.609e-5
0.180, 7.230e-7, -2.605e-5
0.175, 7.179e-7, -2.602e-5
0.170, 6.789e-7, -2.598e-5
0.165, 6.820e-7, -2.595e-5
0.160, 6.749e-7, -2.592e-5
0.155, 6.573e-7, -2.588e-5
0.150, 6.640e-7, -2.585e-5
0.145, 6.566e-7, -2.582e-5
0.140, 6.262e-7, -2.579e-5
0.135, 6.303e-7, -2.575e-5
0.130, 6.286e-7, -2.572e-5
0.125, 6.165e-7, -2.569e-5
0.120, 6.196e-7, -2.566e-5
0.115, 6.198e-7, -2.563e-5
0.110, 6.014e-7, -2.560e-5
0.105, 6.126e-7, -2.557e-5
0.100, 6.179e-7, -2.554e-5
0.095, 5.936e-7, -2.551e-5
0.090, 6.020e-7, -2.548e-5
0.085, 6.135e-7, -2.545e-5
0.080, 5.904e-7, -2.542e-5
0.075, 5.991e-7, -2.539e-5
0.070, 6.161e-7, -2.536e-5
0.065, 6.004e-7, -2.533e-5
0.060, 6.096e-7, -2.530e-5
0.055, 6.228e-7, -2.527e-5
0.050, 6.173e-7, -2.524e-5
0.045, 6.234e-7, -2.520e-5
0.040, 6.538e-7, -2.517e-5
0.035, 6.400e-7, -2.514e-5
0.030, 6.536e-7, -2.511e-5
0.025, 6.933e-7, -2.507e-5
0.020, 6.878e-7, -2.504e-5
0.015, 7.066e-7, -2.500e-5
0.010, 7.590e-7, -2.496e-5
0.005, 7.590e-7, -2.493e-5
0.000, 7.777e-7, -2.489e-5
-0.005, 8.549e-7, -2.484e-5
-0.010, 8.745e-7, -2.480e-5
-0.015, 9.064e-7, -2.476e-5
-0.020, 1.019e-6, -2.470e-5
-0.025, 1.051e-6, -2.465e-5
-0.030, 1.100e-6, -2.460e-5
-0.035, 1.291e-6, -2.453e-5
-0.040, 1.365e-6, -2.446e-5
-0.045, 1.421e-6, -2.439e-5
-0.050, 1.660e-6, -2.431e-5
-0.055, 1.744e-6, -2.422e-5
-0.060, 1.766e-6, -2.414e-5
-0.065, 2.011e-6, -2.403e-5
-0.070, 2.063e-6, -2.393e-5
-0.075, 1.997e-6, -2.383e-5
-0.080, 2.199e-6, -2.372e-5
-0.085, 2.215e-6, -2.361e-5
-0.090, 2.110e-6, -2.351e-5
-0.095, 2.264e-6, -2.339e-5
-0.100, 2.286e-6, -2.328e-5
-0.105, 2.137e-6, -2.317e-5
-0.110, 2.271e-6, -2.306e-5
-0.115, 2.294e-6, -2.294e-5
-0.120, 2.140e-6, -2.284e-5
-0.125, 2.255e-6, -2.272e-5
-0.130, 2.300e-6, -2.261e-5
-0.135, 2.164e-6, -2.250e-5
-0.140, 2.303e-6, -2.238e-5
-0.145, 2.373e-6, -2.227e-5
-0.150, 2.248e-6, -2.215e-5
-0.155, 2.390e-6, -2.203e-5
-0.160, 2.528e-6, -2.191e-5
-0.165, 2.450e-6, -2.179e-5
-0.170, 2.624e-6, -2.165e-5
-0.175, 2.816e-6, -2.151e-5
-0.180, 2.750e-6, -2.138e-5
-0.185, 2.957e-6, -2.123e-5
-0.190, 3.231e-6, -2.107e-5
-0.195, 3.163e-6, -2.091e-5
-0.200, 3.371e-6, -2.074e-5
-0.205, 3.691e-6, -2.056e-5
-0.210, 3.586e-6, -2.038e-5
-0.215, 3.730e-6, -2.019e-5
-0.220, 4.048e-6, -1.999e-5
-0.225, 3.930e-6, -1.979e-5
-0.230, 3.976e-6, -1.959e-5
-0.235, 4.304e-6, -1.938e-5
-0.240, 4.141e-6, -1.917e-5
-0.245, 4.142e-6, -1.896e-5
-0.250, 1.196e-6, -1.890e-5
