Nov. 2, 2023   14:07:21
Linear Sweep Voltammetry
File: c:\users\dell\desktop\电化学数据\114514\clean_lsv.txt
Data Source:  Experiment
Instrument Model:  CHI600B
Header: 
Note: 

Init E (V) = 1.25
Final E (V) = -0.3
Scan Rate (V/s) = 0.01
Sample Interval (V) = 0.001
Quiet Time (sec) = 2
Sensitivity (A/V) = 1e-5

Ep = 0.390V
ip = 8.864e-7A
Ah = 6.348e-6C

Potential/V, Current/A, Charge/C

Segment 1:
1.249, -4.273e-6, -4.273e-7
1.248, -3.006e-6, -7.278e-7
1.247, -2.437e-6, -9.715e-7
1.246, -2.100e-6, -1.182e-6
1.245, -1.863e-6, -1.368e-6
1.244, -1.691e-6, -1.537e-6
1.243, -1.561e-6, -1.693e-6
1.242, -1.454e-6, -1.838e-6
1.241, -1.366e-6, -1.975e-6
1.240, -1.292e-6, -2.104e-6
1.239, -1.225e-6, -2.227e-6
1.238, -1.173e-6, -2.344e-6
1.237, -1.120e-6, -2.456e-6
1.236, -1.076e-6, -2.563e-6
1.235, -1.035e-6, -2.667e-6
1.234, -9.919e-7, -2.766e-6
1.233, -9.633e-7, -2.862e-6
1.232, -9.363e-7, -2.956e-6
1.231, -8.969e-7, -3.046e-6
1.230, -8.802e-7, -3.134e-6
1.229, -8.456e-7, -3.218e-6
1.228, -8.320e-7, -3.301e-6
1.227, -7.988e-7, -3.381e-6
1.226, -7.922e-7, -3.461e-6
1.225, -7.644e-7, -3.537e-6
1.224, -7.464e-7, -3.612e-6
1.223, -7.382e-7, -3.686e-6
1.222, -7.069e-7, -3.756e-6
1.221, -6.973e-7, -3.826e-6
1.220, -6.907e-7, -3.895e-6
1.219, -6.654e-7, -3.962e-6
1.218, -6.505e-7, -4.027e-6
1.217, -6.476e-7, -4.091e-6
1.216, -6.374e-7, -4.155e-6
1.215, -6.143e-7, -4.217e-6
1.214, -6.014e-7, -4.277e-6
1.213, -5.995e-7, -4.337e-6
1.212, -5.968e-7, -4.396e-6
1.211, -5.867e-7, -4.455e-6
1.210, -5.672e-7, -4.512e-6
1.209, -5.549e-7, -4.567e-6
1.208, -5.511e-7, -4.622e-6
1.207, -5.497e-7, -4.677e-6
1.206, -5.434e-7, -4.732e-6
1.205, -5.291e-7, -4.784e-6
1.204, -5.125e-7, -4.836e-6
1.203, -5.054e-7, -4.886e-6
1.202, -5.023e-7, -4.936e-6
1.201, -5.010e-7, -4.987e-6
1.200, -4.982e-7, -5.036e-6
1.199, -4.896e-7, -5.085e-6
1.198, -4.803e-7, -5.133e-6
1.197, -4.666e-7, -5.180e-6
1.196, -4.597e-7, -5.226e-6
1.195, -4.546e-7, -5.272e-6
1.194, -4.534e-7, -5.317e-6
1.193, -4.527e-7, -5.362e-6
1.192, -4.511e-7, -5.407e-6
1.191, -4.476e-7, -5.452e-6
1.190, -4.396e-7, -5.496e-6
1.189, -4.312e-7, -5.539e-6
1.188, -4.198e-7, -5.581e-6
1.187, -4.136e-7, -5.622e-6
1.186, -4.078e-7, -5.663e-6
1.185, -4.059e-7, -5.704e-6
1.184, -4.047e-7, -5.744e-6
1.183, -4.043e-7, -5.785e-6
1.182, -4.041e-7, -5.825e-6
1.181, -4.037e-7, -5.865e-6
1.180, -4.024e-7, -5.906e-6
1.179, -4.006e-7, -5.946e-6
1.178, -3.956e-7, -5.985e-6
1.177, -3.905e-7, -6.024e-6
1.176, -3.821e-7, -6.063e-6
1.175, -3.757e-7, -6.100e-6
1.174, -3.677e-7, -6.137e-6
1.173, -3.631e-7, -6.173e-6
1.172, -3.591e-7, -6.209e-6
1.171, -3.573e-7, -6.245e-6
1.170, -3.561e-7, -6.280e-6
1.169, -3.556e-7, -6.316e-6
1.168, -3.551e-7, -6.352e-6
1.167, -3.548e-7, -6.387e-6
1.166, -3.538e-7, -6.422e-6
1.165, -3.526e-7, -6.458e-6
1.164, -3.488e-7, -6.493e-6
1.163, -3.452e-7, -6.527e-6
1.162, -3.357e-7, -6.561e-6
1.161, -3.268e-7, -6.593e-6
1.160, -3.094e-7, -6.624e-6
1.159, -2.961e-7, -6.654e-6
1.158, -2.737e-7, -6.681e-6
1.157, -2.619e-7, -6.707e-6
1.156, -2.432e-7, -6.732e-6
1.155, -2.359e-7, -6.755e-6
1.154, -2.246e-7, -6.778e-6
1.153, -2.201e-7, -6.800e-6
1.152, -2.159e-7, -6.821e-6
1.151, -2.135e-7, -6.843e-6
1.150, -2.114e-7, -6.864e-6
1.149, -2.104e-7, -6.885e-6
1.148, -2.094e-7, -6.906e-6
1.147, -2.090e-7, -6.927e-6
1.146, -2.083e-7, -6.948e-6
1.145, -2.079e-7, -6.968e-6
1.144, -2.069e-7, -6.989e-6
1.143, -2.061e-7, -7.010e-6
1.142, -2.044e-7, -7.030e-6
1.141, -2.034e-7, -7.050e-6
1.140, -2.009e-7, -7.071e-6
1.139, -1.998e-7, -7.091e-6
1.138, -1.973e-7, -7.110e-6
1.137, -1.960e-7, -7.130e-6
1.136, -1.936e-7, -7.149e-6
1.135, -1.919e-7, -7.168e-6
1.134, -1.893e-7, -7.187e-6
1.133, -1.874e-7, -7.206e-6
1.132, -1.844e-7, -7.225e-6
1.131, -1.818e-7, -7.243e-6
1.130, -1.781e-7, -7.261e-6
1.129, -1.750e-7, -7.278e-6
1.128, -1.726e-7, -7.295e-6
1.127, -1.693e-7, -7.312e-6
1.126, -1.667e-7, -7.329e-6
1.125, -1.649e-7, -7.345e-6
1.124, -1.633e-7, -7.362e-6
1.123, -1.624e-7, -7.378e-6
1.122, -1.615e-7, -7.394e-6
1.121, -1.611e-7, -7.410e-6
1.120, -1.608e-7, -7.426e-6
1.119, -1.606e-7, -7.442e-6
1.118, -1.604e-7, -7.458e-6
1.117, -1.603e-7, -7.474e-6
1.116, -1.602e-7, -7.490e-6
1.115, -1.601e-7, -7.506e-6
1.114, -1.600e-7, -7.522e-6
1.113, -1.599e-7, -7.538e-6
1.112, -1.598e-7, -7.554e-6
1.111, -1.596e-7, -7.570e-6
1.110, -1.595e-7, -7.586e-6
1.109, -1.592e-7, -7.602e-6
1.108, -1.587e-7, -7.618e-6
1.107, -1.584e-7, -7.634e-6
1.106, -1.578e-7, -7.650e-6
1.105, -1.571e-7, -7.665e-6
1.104, -1.562e-7, -7.681e-6
1.103, -1.554e-7, -7.697e-6
1.102, -1.545e-7, -7.712e-6
1.101, -1.535e-7, -7.727e-6
1.100, -1.517e-7, -7.743e-6
1.099, -1.504e-7, -7.758e-6
1.098, -1.487e-7, -7.772e-6
1.097, -1.469e-7, -7.787e-6
1.096, -1.447e-7, -7.802e-6
1.095, -1.423e-7, -7.816e-6
1.094, -1.397e-7, -7.830e-6
1.093, -1.373e-7, -7.844e-6
1.092, -1.343e-7, -7.857e-6
1.091, -1.330e-7, -7.870e-6
1.090, -1.306e-7, -7.883e-6
1.089, -1.287e-7, -7.896e-6
1.088, -1.257e-7, -7.909e-6
1.087, -1.239e-7, -7.921e-6
1.086, -1.220e-7, -7.933e-6
1.085, -1.204e-7, -7.945e-6
1.084, -1.191e-7, -7.957e-6
1.083, -1.182e-7, -7.969e-6
1.082, -1.173e-7, -7.981e-6
1.081, -1.163e-7, -7.993e-6
1.080, -1.153e-7, -8.004e-6
1.079, -1.145e-7, -8.015e-6
1.078, -1.139e-7, -8.027e-6
1.077, -1.135e-7, -8.038e-6
1.076, -1.129e-7, -8.050e-6
1.075, -1.125e-7, -8.061e-6
1.074, -1.123e-7, -8.072e-6
1.073, -1.121e-7, -8.083e-6
1.072, -1.119e-7, -8.094e-6
1.071, -1.118e-7, -8.106e-6
1.070, -1.116e-7, -8.117e-6
1.069, -1.115e-7, -8.128e-6
1.068, -1.114e-7, -8.139e-6
1.067, -1.113e-7, -8.150e-6
1.066, -1.113e-7, -8.161e-6
1.065, -1.113e-7, -8.172e-6
1.064, -1.112e-7, -8.184e-6
1.063, -1.110e-7, -8.195e-6
1.062, -1.110e-7, -8.206e-6
1.061, -1.108e-7, -8.217e-6
1.060, -1.106e-7, -8.228e-6
1.059, -1.104e-7, -8.239e-6
1.058, -1.104e-7, -8.250e-6
1.057, -1.102e-7, -8.261e-6
1.056, -1.101e-7, -8.272e-6
1.055, -1.096e-7, -8.283e-6
1.054, -1.095e-7, -8.294e-6
1.053, -1.088e-7, -8.305e-6
1.052, -1.087e-7, -8.316e-6
1.051, -1.078e-7, -8.326e-6
1.050, -1.077e-7, -8.337e-6
1.049, -1.067e-7, -8.348e-6
1.048, -1.066e-7, -8.358e-6
1.047, -1.048e-7, -8.369e-6
1.046, -1.048e-7, -8.379e-6
1.045, -1.031e-7, -8.390e-6
1.044, -1.041e-7, -8.400e-6
1.043, -1.021e-7, -8.410e-6
1.042, -1.026e-7, -8.421e-6
1.041, -1.005e-7, -8.431e-6
1.040, -1.008e-7, -8.441e-6
1.039, -9.787e-8, -8.451e-6
1.038, -9.865e-8, -8.460e-6
1.037, -9.502e-8, -8.470e-6
1.036, -9.530e-8, -8.479e-6
1.035, -9.235e-8, -8.489e-6
1.034, -9.288e-8, -8.498e-6
1.033, -8.927e-8, -8.507e-6
1.032, -9.046e-8, -8.516e-6
1.031, -8.633e-8, -8.525e-6
1.030, -8.745e-8, -8.533e-6
1.029, -8.371e-8, -8.542e-6
1.028, -8.440e-8, -8.550e-6
1.027, -8.139e-8, -8.558e-6
1.026, -8.251e-8, -8.567e-6
1.025, -7.941e-8, -8.574e-6
1.024, -8.013e-8, -8.582e-6
1.023, -7.757e-8, -8.590e-6
1.022, -7.864e-8, -8.598e-6
1.021, -7.504e-8, -8.606e-6
1.020, -7.522e-8, -8.613e-6
1.019, -7.263e-8, -8.620e-6
1.018, -7.302e-8, -8.628e-6
1.017, -7.106e-8, -8.635e-6
1.016, -7.148e-8, -8.642e-6
1.015, -6.949e-8, -8.649e-6
1.014, -6.996e-8, -8.656e-6
1.013, -6.812e-8, -8.663e-6
1.012, -6.810e-8, -8.670e-6
1.011, -6.644e-8, -8.676e-6
1.010, -6.674e-8, -8.683e-6
1.009, -6.550e-8, -8.689e-6
1.008, -6.557e-8, -8.696e-6
1.007, -6.477e-8, -8.702e-6
1.006, -6.494e-8, -8.709e-6
1.005, -6.430e-8, -8.715e-6
1.004, -6.441e-8, -8.722e-6
1.003, -6.394e-8, -8.728e-6
1.002, -6.402e-8, -8.735e-6
1.001, -6.353e-8, -8.741e-6
1.000, -6.355e-8, -8.747e-6
0.999, -6.317e-8, -8.754e-6
0.998, -6.330e-8, -8.760e-6
0.997, -6.299e-8, -8.766e-6
0.996, -6.299e-8, -8.773e-6
0.995, -6.282e-8, -8.779e-6
0.994, -6.279e-8, -8.785e-6
0.993, -6.269e-8, -8.791e-6
0.992, -6.270e-8, -8.798e-6
0.991, -6.260e-8, -8.804e-6
0.990, -6.252e-8, -8.810e-6
0.989, -6.251e-8, -8.816e-6
0.988, -6.251e-8, -8.823e-6
0.987, -6.245e-8, -8.829e-6
0.986, -6.240e-8, -8.835e-6
0.985, -6.235e-8, -8.841e-6
0.984, -6.227e-8, -8.848e-6
0.983, -6.219e-8, -8.854e-6
0.982, -6.215e-8, -8.860e-6
0.981, -6.210e-8, -8.866e-6
0.980, -6.200e-8, -8.872e-6
0.979, -6.198e-8, -8.879e-6
0.978, -6.188e-8, -8.885e-6
0.977, -6.180e-8, -8.891e-6
0.976, -6.164e-8, -8.897e-6
0.975, -6.152e-8, -8.903e-6
0.974, -6.142e-8, -8.909e-6
0.973, -6.122e-8, -8.916e-6
0.972, -6.093e-8, -8.922e-6
0.971, -6.097e-8, -8.928e-6
0.970, -6.062e-8, -8.934e-6
0.969, -6.049e-8, -8.940e-6
0.968, -6.008e-8, -8.946e-6
0.967, -5.997e-8, -8.952e-6
0.966, -5.943e-8, -8.958e-6
0.965, -5.910e-8, -8.964e-6
0.964, -5.847e-8, -8.970e-6
0.963, -5.816e-8, -8.975e-6
0.962, -5.722e-8, -8.981e-6
0.961, -5.671e-8, -8.987e-6
0.960, -5.566e-8, -8.992e-6
0.959, -5.523e-8, -8.998e-6
0.958, -5.422e-8, -9.003e-6
0.957, -5.345e-8, -9.009e-6
0.956, -5.313e-8, -9.014e-6
0.955, -5.409e-8, -9.019e-6
0.954, -5.300e-8, -9.025e-6
0.953, -5.200e-8, -9.030e-6
0.952, -5.055e-8, -9.035e-6
0.951, -5.024e-8, -9.040e-6
0.950, -4.874e-8, -9.045e-6
0.949, -4.799e-8, -9.050e-6
0.948, -4.599e-8, -9.054e-6
0.947, -4.646e-8, -9.059e-6
0.946, -4.399e-8, -9.063e-6
0.945, -4.337e-8, -9.068e-6
0.944, -4.148e-8, -9.072e-6
0.943, -4.096e-8, -9.076e-6
0.942, -3.917e-8, -9.080e-6
0.941, -3.835e-8, -9.084e-6
0.940, -3.738e-8, -9.087e-6
0.939, -3.672e-8, -9.091e-6
0.938, -3.548e-8, -9.095e-6
0.937, -3.409e-8, -9.098e-6
0.936, -3.259e-8, -9.101e-6
0.935, -3.184e-8, -9.104e-6
0.934, -3.035e-8, -9.107e-6
0.933, -2.956e-8, -9.110e-6
0.932, -2.776e-8, -9.113e-6
0.931, -2.704e-8, -9.116e-6
0.930, -2.628e-8, -9.119e-6
0.929, -2.612e-8, -9.121e-6
0.928, -2.520e-8, -9.124e-6
0.927, -2.422e-8, -9.126e-6
0.926, -2.314e-8, -9.128e-6
0.925, -2.256e-8, -9.131e-6
0.924, -2.151e-8, -9.133e-6
0.923, -2.107e-8, -9.135e-6
0.922, -1.997e-8, -9.137e-6
0.921, -1.941e-8, -9.139e-6
0.920, -1.891e-8, -9.141e-6
0.919, -1.824e-8, -9.143e-6
0.918, -1.776e-8, -9.144e-6
0.917, -1.749e-8, -9.146e-6
0.916, -1.695e-8, -9.148e-6
0.915, -1.684e-8, -9.149e-6
0.914, -1.627e-8, -9.151e-6
0.913, -1.615e-8, -9.153e-6
0.912, -1.574e-8, -9.154e-6
0.911, -1.561e-8, -9.156e-6
0.910, -1.531e-8, -9.157e-6
0.909, -1.510e-8, -9.159e-6
0.908, -1.481e-8, -9.160e-6
0.907, -1.484e-8, -9.162e-6
0.906, -1.462e-8, -9.163e-6
0.905, -1.448e-8, -9.165e-6
0.904, -1.434e-8, -9.166e-6
0.903, -1.425e-8, -9.168e-6
0.902, -1.414e-8, -9.169e-6
0.901, -1.411e-8, -9.170e-6
0.900, -1.399e-8, -9.172e-6
0.899, -1.401e-8, -9.173e-6
0.898, -1.384e-8, -9.175e-6
0.897, -1.383e-8, -9.176e-6
0.896, -1.380e-8, -9.177e-6
0.895, -1.373e-8, -9.179e-6
0.894, -1.364e-8, -9.180e-6
0.893, -1.362e-8, -9.181e-6
0.892, -1.348e-8, -9.183e-6
0.891, -1.353e-8, -9.184e-6
0.890, -1.343e-8, -9.186e-6
0.889, -1.338e-8, -9.187e-6
0.888, -1.321e-8, -9.188e-6
0.887, -1.325e-8, -9.190e-6
0.886, -1.309e-8, -9.191e-6
0.885, -1.314e-8, -9.192e-6
0.884, -1.297e-8, -9.193e-6
0.883, -1.294e-8, -9.195e-6
0.882, -1.272e-8, -9.196e-6
0.881, -1.280e-8, -9.197e-6
0.880, -1.254e-8, -9.199e-6
0.879, -1.253e-8, -9.200e-6
0.878, -1.236e-8, -9.201e-6
0.877, -1.231e-8, -9.202e-6
0.876, -1.201e-8, -9.203e-6
0.875, -1.197e-8, -9.205e-6
0.874, -1.148e-8, -9.206e-6
0.873, -1.144e-8, -9.207e-6
0.872, -1.101e-8, -9.208e-6
0.871, -1.086e-8, -9.209e-6
0.870, -1.033e-8, -9.210e-6
0.869, -1.024e-8, -9.211e-6
0.868, -9.813e-9, -9.212e-6
0.867, -9.826e-9, -9.213e-6
0.866, -9.047e-9, -9.214e-6
0.865, -9.218e-9, -9.215e-6
0.864, -8.254e-9, -9.216e-6
0.863, -8.049e-9, -9.217e-6
0.862, -7.297e-9, -9.217e-6
0.861, -7.211e-9, -9.218e-6
0.860, -5.857e-9, -9.219e-6
0.859, -5.758e-9, -9.219e-6
0.858, -4.391e-9, -9.220e-6
0.857, -4.589e-9, -9.220e-6
0.856, -3.262e-9, -9.220e-6
0.855, -3.473e-9, -9.221e-6
0.854, -2.251e-9, -9.221e-6
0.853, -2.179e-9, -9.221e-6
0.852, -4.484e-10, -9.221e-6
0.851, -8.843e-10, -9.221e-6
0.850, 1.176e-9, -9.221e-6
0.849, 6.874e-10, -9.221e-6
0.848, 2.781e-9, -9.221e-6
0.847, 3.144e-9, -9.221e-6
0.846, 4.359e-9, -9.220e-6
0.845, 3.474e-9, -9.220e-6
0.844, 5.621e-9, -9.219e-6
0.843, 5.535e-9, -9.219e-6
0.842, 7.390e-9, -9.218e-6
0.841, 7.886e-9, -9.217e-6
0.840, 9.959e-9, -9.216e-6
0.839, 9.939e-9, -9.215e-6
0.838, 1.158e-8, -9.214e-6
0.837, 1.170e-8, -9.213e-6
0.836, 1.428e-8, -9.211e-6
0.835, 1.315e-8, -9.210e-6
0.834, 1.551e-8, -9.209e-6
0.833, 1.526e-8, -9.207e-6
0.832, 1.767e-8, -9.205e-6
0.831, 1.747e-8, -9.204e-6
0.830, 1.892e-8, -9.202e-6
0.829, 1.909e-8, -9.200e-6
0.828, 2.122e-8, -9.198e-6
0.827, 2.052e-8, -9.196e-6
0.826, 2.241e-8, -9.193e-6
0.825, 2.276e-8, -9.191e-6
0.824, 2.421e-8, -9.189e-6
0.823, 2.440e-8, -9.186e-6
0.822, 2.597e-8, -9.184e-6
0.821, 2.591e-8, -9.181e-6
0.820, 2.739e-8, -9.178e-6
0.819, 2.609e-8, -9.176e-6
0.818, 2.827e-8, -9.173e-6
0.817, 2.850e-8, -9.170e-6
0.816, 2.945e-8, -9.167e-6
0.815, 2.947e-8, -9.164e-6
0.814, 3.030e-8, -9.161e-6
0.813, 3.056e-8, -9.158e-6
0.812, 3.103e-8, -9.155e-6
0.811, 3.107e-8, -9.152e-6
0.810, 3.175e-8, -9.149e-6
0.809, 3.179e-8, -9.145e-6
0.808, 3.244e-8, -9.142e-6
0.807, 3.226e-8, -9.139e-6
0.806, 3.281e-8, -9.136e-6
0.805, 3.269e-8, -9.132e-6
0.804, 3.313e-8, -9.129e-6
0.803, 3.328e-8, -9.126e-6
0.802, 3.361e-8, -9.122e-6
0.801, 3.361e-8, -9.119e-6
0.800, 3.383e-8, -9.116e-6
0.799, 3.392e-8, -9.112e-6
0.798, 3.414e-8, -9.109e-6
0.797, 3.419e-8, -9.105e-6
0.796, 3.446e-8, -9.102e-6
0.795, 3.449e-8, -9.099e-6
0.794, 3.458e-8, -9.095e-6
0.793, 3.460e-8, -9.092e-6
0.792, 3.476e-8, -9.088e-6
0.791, 3.477e-8, -9.085e-6
0.790, 3.489e-8, -9.081e-6
0.789, 3.488e-8, -9.078e-6
0.788, 3.494e-8, -9.074e-6
0.787, 3.497e-8, -9.071e-6
0.786, 3.500e-8, -9.067e-6
0.785, 3.504e-8, -9.064e-6
0.784, 3.508e-8, -9.060e-6
0.783, 3.506e-8, -9.057e-6
0.782, 3.509e-8, -9.053e-6
0.781, 3.513e-8, -9.050e-6
0.780, 3.513e-8, -9.046e-6
0.779, 3.515e-8, -9.043e-6
0.778, 3.518e-8, -9.039e-6
0.777, 3.518e-8, -9.036e-6
0.776, 3.520e-8, -9.032e-6
0.775, 3.521e-8, -9.029e-6
0.774, 3.524e-8, -9.025e-6
0.773, 3.527e-8, -9.021e-6
0.772, 3.527e-8, -9.018e-6
0.771, 3.530e-8, -9.014e-6
0.770, 3.536e-8, -9.011e-6
0.769, 3.536e-8, -9.007e-6
0.768, 3.544e-8, -9.004e-6
0.767, 3.544e-8, -9.000e-6
0.766, 3.546e-8, -8.997e-6
0.765, 3.552e-8, -8.993e-6
0.764, 3.554e-8, -8.990e-6
0.763, 3.562e-8, -8.986e-6
0.762, 3.571e-8, -8.982e-6
0.761, 3.576e-8, -8.979e-6
0.760, 3.588e-8, -8.975e-6
0.759, 3.591e-8, -8.972e-6
0.758, 3.614e-8, -8.968e-6
0.757, 3.618e-8, -8.964e-6
0.756, 3.632e-8, -8.961e-6
0.755, 3.650e-8, -8.957e-6
0.754, 3.676e-8, -8.954e-6
0.753, 3.677e-8, -8.950e-6
0.752, 3.723e-8, -8.946e-6
0.751, 3.739e-8, -8.942e-6
0.750, 3.766e-8, -8.939e-6
0.749, 3.791e-8, -8.935e-6
0.748, 3.826e-8, -8.931e-6
0.747, 3.828e-8, -8.927e-6
0.746, 3.880e-8, -8.923e-6
0.745, 3.923e-8, -8.919e-6
0.744, 3.974e-8, -8.915e-6
0.743, 4.061e-8, -8.911e-6
0.742, 4.069e-8, -8.907e-6
0.741, 4.160e-8, -8.903e-6
0.740, 4.267e-8, -8.899e-6
0.739, 4.327e-8, -8.895e-6
0.738, 4.430e-8, -8.890e-6
0.737, 4.513e-8, -8.886e-6
0.736, 4.624e-8, -8.881e-6
0.735, 4.668e-8, -8.876e-6
0.734, 4.733e-8, -8.872e-6
0.733, 4.792e-8, -8.867e-6
0.732, 4.933e-8, -8.862e-6
0.731, 5.004e-8, -8.857e-6
0.730, 5.157e-8, -8.852e-6
0.729, 5.300e-8, -8.846e-6
0.728, 5.399e-8, -8.841e-6
0.727, 5.562e-8, -8.835e-6
0.726, 5.716e-8, -8.830e-6
0.725, 5.803e-8, -8.824e-6
0.724, 5.990e-8, -8.818e-6
0.723, 6.124e-8, -8.812e-6
0.722, 6.277e-8, -8.805e-6
0.721, 6.429e-8, -8.799e-6
0.720, 6.556e-8, -8.793e-6
0.719, 6.688e-8, -8.786e-6
0.718, 6.815e-8, -8.779e-6
0.717, 6.986e-8, -8.772e-6
0.716, 7.134e-8, -8.765e-6
0.715, 7.128e-8, -8.758e-6
0.714, 7.324e-8, -8.750e-6
0.713, 7.373e-8, -8.743e-6
0.712, 7.484e-8, -8.736e-6
0.711, 7.556e-8, -8.728e-6
0.710, 7.633e-8, -8.720e-6
0.709, 7.701e-8, -8.713e-6
0.708, 7.798e-8, -8.705e-6
0.707, 7.821e-8, -8.697e-6
0.706, 7.915e-8, -8.689e-6
0.705, 7.968e-8, -8.681e-6
0.704, 8.049e-8, -8.673e-6
0.703, 8.061e-8, -8.665e-6
0.702, 8.115e-8, -8.657e-6
0.701, 8.143e-8, -8.649e-6
0.700, 8.180e-8, -8.641e-6
0.699, 8.193e-8, -8.632e-6
0.698, 8.241e-8, -8.624e-6
0.697, 8.269e-8, -8.616e-6
0.696, 8.293e-8, -8.608e-6
0.695, 8.304e-8, -8.599e-6
0.694, 8.329e-8, -8.591e-6
0.693, 8.339e-8, -8.583e-6
0.692, 8.356e-8, -8.574e-6
0.691, 8.355e-8, -8.566e-6
0.690, 8.371e-8, -8.558e-6
0.689, 8.375e-8, -8.549e-6
0.688, 8.388e-8, -8.541e-6
0.687, 8.394e-8, -8.532e-6
0.686, 8.400e-8, -8.524e-6
0.685, 8.407e-8, -8.516e-6
0.684, 8.416e-8, -8.507e-6
0.683, 8.421e-8, -8.499e-6
0.682, 8.429e-8, -8.490e-6
0.681, 8.436e-8, -8.482e-6
0.680, 8.436e-8, -8.473e-6
0.679, 8.459e-8, -8.465e-6
0.678, 8.464e-8, -8.457e-6
0.677, 8.485e-8, -8.448e-6
0.676, 8.499e-8, -8.440e-6
0.675, 8.526e-8, -8.431e-6
0.674, 8.526e-8, -8.423e-6
0.673, 8.578e-8, -8.414e-6
0.672, 8.568e-8, -8.405e-6
0.671, 8.642e-8, -8.397e-6
0.670, 8.627e-8, -8.388e-6
0.669, 8.712e-8, -8.379e-6
0.668, 8.711e-8, -8.371e-6
0.667, 8.808e-8, -8.362e-6
0.666, 8.811e-8, -8.353e-6
0.665, 8.951e-8, -8.344e-6
0.664, 8.950e-8, -8.335e-6
0.663, 9.135e-8, -8.326e-6
0.662, 9.074e-8, -8.317e-6
0.661, 9.277e-8, -8.308e-6
0.660, 9.263e-8, -8.298e-6
0.659, 9.481e-8, -8.289e-6
0.658, 9.415e-8, -8.280e-6
0.657, 9.689e-8, -8.270e-6
0.656, 9.629e-8, -8.260e-6
0.655, 9.984e-8, -8.250e-6
0.654, 9.877e-8, -8.240e-6
0.653, 1.027e-7, -8.230e-6
0.652, 1.017e-7, -8.220e-6
0.651, 1.047e-7, -8.209e-6
0.650, 1.042e-7, -8.199e-6
0.649, 1.078e-7, -8.188e-6
0.648, 1.071e-7, -8.178e-6
0.647, 1.109e-7, -8.166e-6
0.646, 1.101e-7, -8.155e-6
0.645, 1.143e-7, -8.144e-6
0.644, 1.134e-7, -8.133e-6
0.643, 1.171e-7, -8.121e-6
0.642, 1.171e-7, -8.109e-6
0.641, 1.203e-7, -8.097e-6
0.640, 1.183e-7, -8.085e-6
0.639, 1.219e-7, -8.073e-6
0.638, 1.216e-7, -8.061e-6
0.637, 1.244e-7, -8.049e-6
0.636, 1.242e-7, -8.036e-6
0.635, 1.265e-7, -8.023e-6
0.634, 1.262e-7, -8.011e-6
0.633, 1.281e-7, -7.998e-6
0.632, 1.282e-7, -7.985e-6
0.631, 1.297e-7, -7.972e-6
0.630, 1.295e-7, -7.959e-6
0.629, 1.304e-7, -7.946e-6
0.628, 1.307e-7, -7.933e-6
0.627, 1.315e-7, -7.920e-6
0.626, 1.315e-7, -7.907e-6
0.625, 1.321e-7, -7.894e-6
0.624, 1.321e-7, -7.881e-6
0.623, 1.324e-7, -7.867e-6
0.622, 1.325e-7, -7.854e-6
0.621, 1.326e-7, -7.841e-6
0.620, 1.327e-7, -7.827e-6
0.619, 1.328e-7, -7.814e-6
0.618, 1.328e-7, -7.801e-6
0.617, 1.330e-7, -7.788e-6
0.616, 1.331e-7, -7.774e-6
0.615, 1.332e-7, -7.761e-6
0.614, 1.334e-7, -7.748e-6
0.613, 1.334e-7, -7.734e-6
0.612, 1.337e-7, -7.721e-6
0.611, 1.338e-7, -7.708e-6
0.610, 1.342e-7, -7.694e-6
0.609, 1.345e-7, -7.681e-6
0.608, 1.351e-7, -7.667e-6
0.607, 1.357e-7, -7.654e-6
0.606, 1.366e-7, -7.640e-6
0.605, 1.375e-7, -7.626e-6
0.604, 1.391e-7, -7.612e-6
0.603, 1.399e-7, -7.598e-6
0.602, 1.420e-7, -7.584e-6
0.601, 1.436e-7, -7.570e-6
0.600, 1.458e-7, -7.555e-6
0.599, 1.482e-7, -7.540e-6
0.598, 1.506e-7, -7.525e-6
0.597, 1.525e-7, -7.510e-6
0.596, 1.559e-7, -7.494e-6
0.595, 1.574e-7, -7.479e-6
0.594, 1.618e-7, -7.463e-6
0.593, 1.628e-7, -7.446e-6
0.592, 1.661e-7, -7.430e-6
0.591, 1.682e-7, -7.413e-6
0.590, 1.711e-7, -7.396e-6
0.589, 1.721e-7, -7.378e-6
0.588, 1.745e-7, -7.361e-6
0.587, 1.758e-7, -7.343e-6
0.586, 1.774e-7, -7.326e-6
0.585, 1.783e-7, -7.308e-6
0.584, 1.793e-7, -7.290e-6
0.583, 1.799e-7, -7.272e-6
0.582, 1.804e-7, -7.254e-6
0.581, 1.808e-7, -7.236e-6
0.580, 1.811e-7, -7.218e-6
0.579, 1.813e-7, -7.200e-6
0.578, 1.815e-7, -7.181e-6
0.577, 1.816e-7, -7.163e-6
0.576, 1.818e-7, -7.145e-6
0.575, 1.819e-7, -7.127e-6
0.574, 1.820e-7, -7.109e-6
0.573, 1.822e-7, -7.091e-6
0.572, 1.825e-7, -7.072e-6
0.571, 1.828e-7, -7.054e-6
0.570, 1.834e-7, -7.036e-6
0.569, 1.843e-7, -7.017e-6
0.568, 1.852e-7, -6.999e-6
0.567, 1.865e-7, -6.980e-6
0.566, 1.882e-7, -6.961e-6
0.565, 1.901e-7, -6.942e-6
0.564, 1.929e-7, -6.923e-6
0.563, 1.959e-7, -6.903e-6
0.562, 1.988e-7, -6.883e-6
0.561, 2.025e-7, -6.863e-6
0.560, 2.062e-7, -6.843e-6
0.559, 2.100e-7, -6.822e-6
0.558, 2.137e-7, -6.800e-6
0.557, 2.174e-7, -6.778e-6
0.556, 2.200e-7, -6.756e-6
0.555, 2.226e-7, -6.734e-6
0.554, 2.248e-7, -6.712e-6
0.553, 2.268e-7, -6.689e-6
0.552, 2.279e-7, -6.666e-6
0.551, 2.289e-7, -6.643e-6
0.550, 2.296e-7, -6.620e-6
0.549, 2.300e-7, -6.597e-6
0.548, 2.302e-7, -6.574e-6
0.547, 2.304e-7, -6.551e-6
0.546, 2.305e-7, -6.528e-6
0.545, 2.306e-7, -6.505e-6
0.544, 2.307e-7, -6.482e-6
0.543, 2.308e-7, -6.459e-6
0.542, 2.312e-7, -6.436e-6
0.541, 2.316e-7, -6.413e-6
0.540, 2.325e-7, -6.390e-6
0.539, 2.333e-7, -6.366e-6
0.538, 2.351e-7, -6.343e-6
0.537, 2.371e-7, -6.319e-6
0.536, 2.404e-7, -6.295e-6
0.535, 2.443e-7, -6.271e-6
0.534, 2.500e-7, -6.246e-6
0.533, 2.549e-7, -6.220e-6
0.532, 2.610e-7, -6.194e-6
0.531, 2.646e-7, -6.168e-6
0.530, 2.700e-7, -6.141e-6
0.529, 2.728e-7, -6.113e-6
0.528, 2.757e-7, -6.086e-6
0.527, 2.772e-7, -6.058e-6
0.526, 2.783e-7, -6.030e-6
0.525, 2.789e-7, -6.002e-6
0.524, 2.793e-7, -5.974e-6
0.523, 2.796e-7, -5.946e-6
0.522, 2.798e-7, -5.918e-6
0.521, 2.806e-7, -5.890e-6
0.520, 2.811e-7, -5.862e-6
0.519, 2.834e-7, -5.834e-6
0.518, 2.849e-7, -5.805e-6
0.517, 2.893e-7, -5.776e-6
0.516, 2.920e-7, -5.747e-6
0.515, 2.989e-7, -5.717e-6
0.514, 3.021e-7, -5.687e-6
0.513, 3.104e-7, -5.656e-6
0.512, 3.137e-7, -5.625e-6
0.511, 3.200e-7, -5.593e-6
0.510, 3.220e-7, -5.561e-6
0.509, 3.258e-7, -5.528e-6
0.508, 3.266e-7, -5.495e-6
0.507, 3.277e-7, -5.463e-6
0.506, 3.280e-7, -5.430e-6
0.505, 3.284e-7, -5.397e-6
0.504, 3.290e-7, -5.364e-6
0.503, 3.302e-7, -5.331e-6
0.502, 3.328e-7, -5.298e-6
0.501, 3.371e-7, -5.264e-6
0.500, 3.446e-7, -5.229e-6
0.499, 3.525e-7, -5.194e-6
0.498, 3.615e-7, -5.158e-6
0.497, 3.676e-7, -5.121e-6
0.496, 3.728e-7, -5.084e-6
0.495, 3.753e-7, -5.047e-6
0.494, 3.765e-7, -5.009e-6
0.493, 3.769e-7, -4.971e-6
0.492, 3.774e-7, -4.933e-6
0.491, 3.781e-7, -4.896e-6
0.490, 3.804e-7, -4.858e-6
0.489, 3.850e-7, -4.819e-6
0.488, 3.926e-7, -4.780e-6
0.487, 4.029e-7, -4.740e-6
0.486, 4.112e-7, -4.698e-6
0.485, 4.193e-7, -4.657e-6
0.484, 4.237e-7, -4.614e-6
0.483, 4.252e-7, -4.572e-6
0.482, 4.257e-7, -4.529e-6
0.481, 4.260e-7, -4.486e-6
0.480, 4.267e-7, -4.444e-6
0.479, 4.291e-7, -4.401e-6
0.478, 4.351e-7, -4.357e-6
0.477, 4.452e-7, -4.313e-6
0.476, 4.586e-7, -4.267e-6
0.475, 4.671e-7, -4.220e-6
0.474, 4.728e-7, -4.173e-6
0.473, 4.744e-7, -4.126e-6
0.472, 4.752e-7, -4.078e-6
0.471, 4.776e-7, -4.030e-6
0.470, 4.816e-7, -3.982e-6
0.469, 4.922e-7, -3.933e-6
0.468, 5.014e-7, -3.883e-6
0.467, 5.146e-7, -3.831e-6
0.466, 5.196e-7, -3.779e-6
0.465, 5.229e-7, -3.727e-6
0.464, 5.237e-7, -3.675e-6
0.463, 5.252e-7, -3.622e-6
0.462, 5.309e-7, -3.569e-6
0.461, 5.450e-7, -3.515e-6
0.460, 5.611e-7, -3.458e-6
0.459, 5.692e-7, -3.402e-6
0.458, 5.720e-7, -3.344e-6
0.457, 5.730e-7, -3.287e-6
0.456, 5.768e-7, -3.229e-6
0.455, 5.885e-7, -3.170e-6
0.454, 6.053e-7, -3.110e-6
0.453, 6.170e-7, -3.048e-6
0.452, 6.207e-7, -2.986e-6
0.451, 6.212e-7, -2.924e-6
0.450, 6.224e-7, -2.862e-6
0.449, 6.292e-7, -2.799e-6
0.448, 6.477e-7, -2.734e-6
0.447, 6.642e-7, -2.668e-6
0.446, 6.693e-7, -2.601e-6
0.445, 6.712e-7, -2.534e-6
0.444, 6.766e-7, -2.466e-6
0.443, 6.918e-7, -2.397e-6
0.442, 7.055e-7, -2.326e-6
0.441, 7.166e-7, -2.255e-6
0.440, 7.188e-7, -2.183e-6
0.439, 7.217e-7, -2.111e-6
0.438, 7.360e-7, -2.037e-6
0.437, 7.571e-7, -1.961e-6
0.436, 7.665e-7, -1.885e-6
0.435, 7.680e-7, -1.808e-6
0.434, 7.737e-7, -1.730e-6
0.433, 7.910e-7, -1.651e-6
0.432, 8.105e-7, -1.570e-6
0.431, 8.159e-7, -1.489e-6
0.430, 8.168e-7, -1.407e-6
0.429, 8.209e-7, -1.325e-6
0.428, 8.403e-7, -1.241e-6
0.427, 8.592e-7, -1.155e-6
0.426, 8.652e-7, -1.068e-6
0.425, 8.694e-7, -9.815e-7
0.424, 8.801e-7, -8.935e-7
0.423, 9.005e-7, -8.034e-7
0.422, 9.111e-7, -7.123e-7
0.421, 9.142e-7, -6.209e-7
0.420, 9.182e-7, -5.291e-7
0.419, 9.351e-7, -4.356e-7
0.418, 9.565e-7, -3.399e-7
0.417, 9.622e-7, -2.437e-7
0.416, 9.636e-7, -1.473e-7
0.415, 9.698e-7, -5.037e-8
0.414, 9.872e-7, 4.836e-8
0.413, 1.005e-6, 1.489e-7
0.412, 1.011e-6, 2.500e-7
0.411, 1.012e-6, 3.512e-7
0.410, 1.014e-6, 4.526e-7
0.409, 1.024e-6, 5.550e-7
0.408, 1.043e-6, 6.594e-7
0.407, 1.056e-6, 7.649e-7
0.406, 1.060e-6, 8.709e-7
0.405, 1.062e-6, 9.771e-7
0.404, 1.064e-6, 1.084e-6
0.403, 1.073e-6, 1.191e-6
0.402, 1.079e-6, 1.299e-6
0.401, 1.091e-6, 1.408e-6
0.400, 1.097e-6, 1.518e-6
0.399, 1.105e-6, 1.628e-6
0.398, 1.107e-6, 1.739e-6
0.397, 1.109e-6, 1.850e-6
0.396, 1.110e-6, 1.961e-6
0.395, 1.110e-6, 2.072e-6
0.394, 1.110e-6, 2.183e-6
0.393, 1.110e-6, 2.294e-6
0.392, 1.111e-6, 2.405e-6
0.391, 1.111e-6, 2.516e-6
0.390, 1.111e-6, 2.627e-6
0.389, 1.110e-6, 2.738e-6
0.388, 1.110e-6, 2.849e-6
0.387, 1.110e-6, 2.960e-6
0.386, 1.109e-6, 3.071e-6
0.385, 1.109e-6, 3.182e-6
0.384, 1.106e-6, 3.292e-6
0.383, 1.103e-6, 3.403e-6
0.382, 1.093e-6, 3.512e-6
0.381, 1.087e-6, 3.621e-6
0.380, 1.075e-6, 3.728e-6
0.379, 1.069e-6, 3.835e-6
0.378, 1.063e-6, 3.941e-6
0.377, 1.061e-6, 4.047e-6
0.376, 1.059e-6, 4.153e-6
0.375, 1.053e-6, 4.259e-6
0.374, 1.040e-6, 4.363e-6
0.373, 1.023e-6, 4.465e-6
0.372, 1.014e-6, 4.566e-6
0.371, 1.012e-6, 4.667e-6
0.370, 1.007e-6, 4.768e-6
0.369, 9.877e-7, 4.867e-6
0.368, 9.687e-7, 4.964e-6
0.367, 9.634e-7, 5.060e-6
0.366, 9.626e-7, 5.156e-6
0.365, 9.580e-7, 5.252e-6
0.364, 9.380e-7, 5.346e-6
0.363, 9.167e-7, 5.438e-6
0.362, 9.137e-7, 5.529e-6
0.361, 9.099e-7, 5.620e-6
0.360, 8.949e-7, 5.709e-6
0.359, 8.781e-7, 5.797e-6
0.358, 8.663e-7, 5.884e-6
0.357, 8.615e-7, 5.970e-6
0.356, 8.378e-7, 6.054e-6
0.355, 8.179e-7, 6.136e-6
0.354, 8.160e-7, 6.217e-6
0.353, 8.089e-7, 6.298e-6
0.352, 7.897e-7, 6.377e-6
0.351, 7.722e-7, 6.454e-6
0.350, 7.677e-7, 6.531e-6
0.349, 7.590e-7, 6.607e-6
0.348, 7.315e-7, 6.680e-6
0.347, 7.193e-7, 6.752e-6
0.346, 7.159e-7, 6.824e-6
0.345, 7.062e-7, 6.894e-6
0.344, 6.888e-7, 6.963e-6
0.343, 6.761e-7, 7.031e-6
0.342, 6.702e-7, 7.098e-6
0.341, 6.670e-7, 7.164e-6
0.340, 6.533e-7, 7.230e-6
0.339, 6.313e-7, 7.293e-6
0.338, 6.224e-7, 7.355e-6
0.337, 6.210e-7, 7.417e-6
0.336, 6.180e-7, 7.479e-6
0.335, 5.997e-7, 7.539e-6
0.334, 5.786e-7, 7.597e-6
0.333, 5.729e-7, 7.654e-6
0.332, 5.714e-7, 7.711e-6
0.331, 5.663e-7, 7.768e-6
0.330, 5.603e-7, 7.824e-6
0.329, 5.452e-7, 7.878e-6
0.328, 5.280e-7, 7.931e-6
0.327, 5.236e-7, 7.984e-6
0.326, 5.213e-7, 8.036e-6
0.325, 5.131e-7, 8.087e-6
0.324, 4.973e-7, 8.137e-6
0.323, 4.915e-7, 8.186e-6
0.322, 4.824e-7, 8.234e-6
0.321, 4.781e-7, 8.282e-6
0.320, 4.752e-7, 8.329e-6
0.319, 4.745e-7, 8.377e-6
0.318, 4.732e-7, 8.424e-6
0.317, 4.681e-7, 8.471e-6
0.316, 4.543e-7, 8.516e-6
0.315, 4.349e-7, 8.560e-6
0.314, 4.275e-7, 8.603e-6
0.313, 4.262e-7, 8.645e-6
0.312, 4.261e-7, 8.688e-6
0.311, 4.258e-7, 8.731e-6
0.310, 4.249e-7, 8.773e-6
0.309, 4.197e-7, 8.815e-6
0.308, 4.070e-7, 8.856e-6
0.307, 3.926e-7, 8.895e-6
0.306, 3.857e-7, 8.934e-6
0.305, 3.825e-7, 8.972e-6
0.304, 3.802e-7, 9.010e-6
0.303, 3.786e-7, 9.048e-6
0.302, 3.775e-7, 9.085e-6
0.301, 3.768e-7, 9.123e-6
0.300, 3.755e-7, 9.161e-6
0.299, 3.693e-7, 9.198e-6
0.298, 3.554e-7, 9.233e-6
0.297, 3.425e-7, 9.267e-6
0.296, 3.370e-7, 9.301e-6
0.295, 3.355e-7, 9.335e-6
0.294, 3.331e-7, 9.368e-6
0.293, 3.302e-7, 9.401e-6
0.292, 3.305e-7, 9.434e-6
0.291, 3.313e-7, 9.467e-6
0.290, 3.296e-7, 9.500e-6
0.289, 3.284e-7, 9.533e-6
0.288, 3.278e-7, 9.566e-6
0.287, 3.275e-7, 9.598e-6
0.286, 3.272e-7, 9.631e-6
0.285, 3.272e-7, 9.664e-6
0.284, 3.266e-7, 9.697e-6
0.283, 3.256e-7, 9.729e-6
0.282, 3.169e-7, 9.761e-6
0.281, 3.073e-7, 9.792e-6
0.280, 2.982e-7, 9.821e-6
0.279, 2.951e-7, 9.851e-6
0.278, 2.862e-7, 9.879e-6
0.277, 2.828e-7, 9.908e-6
0.276, 2.822e-7, 9.936e-6
0.275, 2.920e-7, 9.965e-6
0.274, 2.983e-7, 9.995e-6
0.273, 2.941e-7, 1.002e-5
0.272, 2.859e-7, 1.005e-5
0.271, 2.829e-7, 1.008e-5
0.270, 2.803e-7, 1.011e-5
0.269, 2.796e-7, 1.014e-5
0.268, 2.792e-7, 1.017e-5
0.267, 2.791e-7, 1.019e-5
0.266, 2.791e-7, 1.022e-5
0.265, 2.788e-7, 1.025e-5
0.264, 2.783e-7, 1.028e-5
0.263, 2.790e-7, 1.030e-5
0.262, 2.793e-7, 1.033e-5
0.261, 2.794e-7, 1.036e-5
0.260, 2.794e-7, 1.039e-5
0.259, 2.791e-7, 1.042e-5
0.258, 2.777e-7, 1.044e-5
0.257, 2.741e-7, 1.047e-5
0.256, 2.709e-7, 1.050e-5
0.255, 2.654e-7, 1.053e-5
0.254, 2.652e-7, 1.055e-5
0.253, 2.699e-7, 1.058e-5
0.252, 2.714e-7, 1.061e-5
0.251, 2.702e-7, 1.063e-5
0.250, 2.662e-7, 1.066e-5
0.249, 2.639e-7, 1.069e-5
0.248, 2.656e-7, 1.071e-5
0.247, 2.585e-7, 1.074e-5
0.246, 2.532e-7, 1.076e-5
0.245, 2.503e-7, 1.079e-5
0.244, 2.470e-7, 1.081e-5
0.243, 2.439e-7, 1.084e-5
0.242, 2.429e-7, 1.086e-5
0.241, 2.468e-7, 1.089e-5
0.240, 2.525e-7, 1.091e-5
0.239, 2.546e-7, 1.094e-5
0.238, 2.581e-7, 1.096e-5
0.237, 2.649e-7, 1.099e-5
0.236, 2.697e-7, 1.102e-5
0.235, 2.676e-7, 1.104e-5
0.234, 2.698e-7, 1.107e-5
0.233, 2.642e-7, 1.110e-5
0.232, 2.495e-7, 1.112e-5
0.231, 2.366e-7, 1.115e-5
0.230, 2.323e-7, 1.117e-5
0.229, 2.312e-7, 1.119e-5
0.228, 2.319e-7, 1.121e-5
0.227, 2.347e-7, 1.124e-5
0.226, 2.370e-7, 1.126e-5
0.225, 2.351e-7, 1.129e-5
0.224, 2.332e-7, 1.131e-5
0.223, 2.318e-7, 1.133e-5
0.222, 2.314e-7, 1.136e-5
0.221, 2.312e-7, 1.138e-5
0.220, 2.314e-7, 1.140e-5
0.219, 2.316e-7, 1.142e-5
0.218, 2.318e-7, 1.145e-5
0.217, 2.316e-7, 1.147e-5
0.216, 2.317e-7, 1.149e-5
0.215, 2.309e-7, 1.152e-5
0.214, 2.307e-7, 1.154e-5
0.213, 2.305e-7, 1.156e-5
0.212, 2.303e-7, 1.159e-5
0.211, 2.304e-7, 1.161e-5
0.210, 2.305e-7, 1.163e-5
0.209, 2.306e-7, 1.166e-5
0.208, 2.307e-7, 1.168e-5
0.207, 2.308e-7, 1.170e-5
0.206, 2.308e-7, 1.172e-5
0.205, 2.306e-7, 1.175e-5
0.204, 2.304e-7, 1.177e-5
0.203, 2.303e-7, 1.179e-5
0.202, 2.299e-7, 1.182e-5
0.201, 2.300e-7, 1.184e-5
0.200, 2.297e-7, 1.186e-5
0.199, 2.294e-7, 1.189e-5
0.198, 2.299e-7, 1.191e-5
0.197, 2.306e-7, 1.193e-5
0.196, 2.307e-7, 1.196e-5
0.195, 2.305e-7, 1.198e-5
0.194, 2.304e-7, 1.200e-5
0.193, 2.302e-7, 1.202e-5
0.192, 2.301e-7, 1.205e-5
0.191, 2.304e-7, 1.207e-5
0.190, 2.304e-7, 1.209e-5
0.189, 2.303e-7, 1.212e-5
0.188, 2.298e-7, 1.214e-5
0.187, 2.288e-7, 1.216e-5
0.186, 2.277e-7, 1.218e-5
0.185, 2.268e-7, 1.221e-5
0.184, 2.256e-7, 1.223e-5
0.183, 2.257e-7, 1.225e-5
0.182, 2.234e-7, 1.228e-5
0.181, 2.217e-7, 1.230e-5
0.180, 2.238e-7, 1.232e-5
0.179, 2.270e-7, 1.234e-5
0.178, 2.288e-7, 1.237e-5
0.177, 2.296e-7, 1.239e-5
0.176, 2.303e-7, 1.241e-5
0.175, 2.302e-7, 1.243e-5
0.174, 2.291e-7, 1.246e-5
0.173, 2.276e-7, 1.248e-5
0.172, 2.274e-7, 1.250e-5
0.171, 2.287e-7, 1.253e-5
0.170, 2.298e-7, 1.255e-5
0.169, 2.303e-7, 1.257e-5
0.168, 2.304e-7, 1.259e-5
0.167, 2.304e-7, 1.262e-5
0.166, 2.300e-7, 1.264e-5
0.165, 2.292e-7, 1.266e-5
0.164, 2.281e-7, 1.269e-5
0.163, 2.281e-7, 1.271e-5
0.162, 2.299e-7, 1.273e-5
0.161, 2.310e-7, 1.276e-5
0.160, 2.314e-7, 1.278e-5
0.159, 2.308e-7, 1.280e-5
0.158, 2.305e-7, 1.282e-5
0.157, 2.303e-7, 1.285e-5
0.156, 2.300e-7, 1.287e-5
0.155, 2.302e-7, 1.289e-5
0.154, 2.301e-7, 1.292e-5
0.153, 2.296e-7, 1.294e-5
0.152, 2.291e-7, 1.296e-5
0.151, 2.294e-7, 1.299e-5
0.150, 2.297e-7, 1.301e-5
0.149, 2.300e-7, 1.303e-5
0.148, 2.303e-7, 1.305e-5
0.147, 2.305e-7, 1.308e-5
0.146, 2.307e-7, 1.310e-5
0.145, 2.307e-7, 1.312e-5
0.144, 2.308e-7, 1.315e-5
0.143, 2.307e-7, 1.317e-5
0.142, 2.306e-7, 1.319e-5
0.141, 2.306e-7, 1.322e-5
0.140, 2.306e-7, 1.324e-5
0.139, 2.306e-7, 1.326e-5
0.138, 2.303e-7, 1.328e-5
0.137, 2.295e-7, 1.331e-5
0.136, 2.275e-7, 1.333e-5
0.135, 2.246e-7, 1.335e-5
0.134, 2.230e-7, 1.338e-5
0.133, 2.214e-7, 1.340e-5
0.132, 2.211e-7, 1.342e-5
0.131, 2.165e-7, 1.344e-5
0.130, 2.183e-7, 1.346e-5
0.129, 2.149e-7, 1.348e-5
0.128, 2.153e-7, 1.351e-5
0.127, 2.208e-7, 1.353e-5
0.126, 2.236e-7, 1.355e-5
0.125, 2.280e-7, 1.357e-5
0.124, 2.302e-7, 1.360e-5
0.123, 2.306e-7, 1.362e-5
0.122, 2.315e-7, 1.364e-5
0.121, 2.308e-7, 1.367e-5
0.120, 2.303e-7, 1.369e-5
0.119, 2.297e-7, 1.371e-5
0.118, 2.291e-7, 1.373e-5
0.117, 2.283e-7, 1.376e-5
0.116, 2.284e-7, 1.378e-5
0.115, 2.294e-7, 1.380e-5
0.114, 2.294e-7, 1.383e-5
0.113, 2.295e-7, 1.385e-5
0.112, 2.298e-7, 1.387e-5
0.111, 2.303e-7, 1.390e-5
0.110, 2.306e-7, 1.392e-5
0.109, 2.306e-7, 1.394e-5
0.108, 2.304e-7, 1.396e-5
0.107, 2.300e-7, 1.399e-5
0.106, 2.291e-7, 1.401e-5
0.105, 2.277e-7, 1.403e-5
0.104, 2.254e-7, 1.406e-5
0.103, 2.222e-7, 1.408e-5
0.102, 2.232e-7, 1.410e-5
0.101, 2.298e-7, 1.412e-5
0.100, 2.306e-7, 1.415e-5
0.099, 2.307e-7, 1.417e-5
0.098, 2.310e-7, 1.419e-5
0.097, 2.306e-7, 1.422e-5
0.096, 2.304e-7, 1.424e-5
0.095, 2.300e-7, 1.426e-5
0.094, 2.298e-7, 1.428e-5
0.093, 2.295e-7, 1.431e-5
0.092, 2.290e-7, 1.433e-5
0.091, 2.291e-7, 1.435e-5
0.090, 2.299e-7, 1.438e-5
0.089, 2.303e-7, 1.440e-5
0.088, 2.304e-7, 1.442e-5
0.087, 2.301e-7, 1.445e-5
0.086, 2.293e-7, 1.447e-5
0.085, 2.271e-7, 1.449e-5
0.084, 2.252e-7, 1.451e-5
0.083, 2.240e-7, 1.454e-5
0.082, 2.225e-7, 1.456e-5
0.081, 2.245e-7, 1.458e-5
0.080, 2.239e-7, 1.460e-5
0.079, 2.210e-7, 1.462e-5
0.078, 2.169e-7, 1.465e-5
0.077, 2.156e-7, 1.467e-5
0.076, 2.219e-7, 1.469e-5
0.075, 2.241e-7, 1.471e-5
0.074, 2.198e-7, 1.473e-5
0.073, 2.163e-7, 1.476e-5
0.072, 2.165e-7, 1.478e-5
0.071, 2.165e-7, 1.480e-5
0.070, 2.170e-7, 1.482e-5
0.069, 2.201e-7, 1.484e-5
0.068, 2.212e-7, 1.487e-5
0.067, 2.239e-7, 1.489e-5
0.066, 2.244e-7, 1.491e-5
0.065, 2.221e-7, 1.493e-5
0.064, 2.190e-7, 1.495e-5
0.063, 2.164e-7, 1.498e-5
0.062, 2.142e-7, 1.500e-5
0.061, 2.107e-7, 1.502e-5
0.060, 2.121e-7, 1.504e-5
0.059, 2.212e-7, 1.506e-5
0.058, 2.281e-7, 1.508e-5
0.057, 2.297e-7, 1.511e-5
0.056, 2.300e-7, 1.513e-5
0.055, 2.293e-7, 1.515e-5
0.054, 2.266e-7, 1.518e-5
0.053, 2.257e-7, 1.520e-5
0.052, 2.269e-7, 1.522e-5
0.051, 2.288e-7, 1.524e-5
0.050, 2.303e-7, 1.527e-5
0.049, 2.307e-7, 1.529e-5
0.048, 2.307e-7, 1.531e-5
0.047, 2.304e-7, 1.534e-5
0.046, 2.299e-7, 1.536e-5
0.045, 2.297e-7, 1.538e-5
0.044, 2.306e-7, 1.541e-5
0.043, 2.313e-7, 1.543e-5
0.042, 2.312e-7, 1.545e-5
0.041, 2.313e-7, 1.547e-5
0.040, 2.313e-7, 1.550e-5
0.039, 2.309e-7, 1.552e-5
0.038, 2.305e-7, 1.554e-5
0.037, 2.301e-7, 1.557e-5
0.036, 2.292e-7, 1.559e-5
0.035, 2.272e-7, 1.561e-5
0.034, 2.262e-7, 1.564e-5
0.033, 2.281e-7, 1.566e-5
0.032, 2.300e-7, 1.568e-5
0.031, 2.305e-7, 1.570e-5
0.030, 2.305e-7, 1.573e-5
0.029, 2.304e-7, 1.575e-5
0.028, 2.304e-7, 1.577e-5
0.027, 2.301e-7, 1.580e-5
0.026, 2.291e-7, 1.582e-5
0.025, 2.274e-7, 1.584e-5
0.024, 2.267e-7, 1.586e-5
0.023, 2.264e-7, 1.589e-5
0.022, 2.275e-7, 1.591e-5
0.021, 2.287e-7, 1.593e-5
0.020, 2.296e-7, 1.596e-5
0.019, 2.301e-7, 1.598e-5
0.018, 2.302e-7, 1.600e-5
0.017, 2.298e-7, 1.603e-5
0.016, 2.291e-7, 1.605e-5
0.015, 2.284e-7, 1.607e-5
0.014, 2.279e-7, 1.609e-5
0.013, 2.270e-7, 1.612e-5
0.012, 2.252e-7, 1.614e-5
0.011, 2.263e-7, 1.616e-5
0.010, 2.271e-7, 1.618e-5
0.009, 2.259e-7, 1.621e-5
0.008, 2.238e-7, 1.623e-5
0.007, 2.221e-7, 1.625e-5
0.006, 2.238e-7, 1.627e-5
0.005, 2.298e-7, 1.630e-5
0.004, 2.311e-7, 1.632e-5
0.003, 2.315e-7, 1.634e-5
0.002, 2.309e-7, 1.637e-5
0.001, 2.306e-7, 1.639e-5
-0.000, 2.307e-7, 1.641e-5
-0.001, 2.310e-7, 1.644e-5
-0.002, 2.308e-7, 1.646e-5
-0.003, 2.306e-7, 1.648e-5
-0.004, 2.305e-7, 1.650e-5
-0.005, 2.305e-7, 1.653e-5
-0.006, 2.309e-7, 1.655e-5
-0.007, 2.317e-7, 1.657e-5
-0.008, 2.312e-7, 1.660e-5
-0.009, 2.307e-7, 1.662e-5
-0.010, 2.306e-7, 1.664e-5
-0.011, 2.305e-7, 1.667e-5
-0.012, 2.306e-7, 1.669e-5
-0.013, 2.307e-7, 1.671e-5
-0.014, 2.306e-7, 1.674e-5
-0.015, 2.306e-7, 1.676e-5
-0.016, 2.305e-7, 1.678e-5
-0.017, 2.305e-7, 1.680e-5
-0.018, 2.340e-7, 1.683e-5
-0.019, 2.591e-7, 1.685e-5
-0.020, 2.688e-7, 1.688e-5
-0.021, 2.617e-7, 1.691e-5
-0.022, 2.460e-7, 1.693e-5
-0.023, 2.370e-7, 1.696e-5
-0.024, 2.366e-7, 1.698e-5
-0.025, 2.398e-7, 1.700e-5
-0.026, 2.398e-7, 1.703e-5
-0.027, 2.464e-7, 1.705e-5
-0.028, 2.474e-7, 1.708e-5
-0.029, 2.429e-7, 1.710e-5
-0.030, 2.434e-7, 1.712e-5
-0.031, 2.456e-7, 1.715e-5
-0.032, 2.496e-7, 1.717e-5
-0.033, 2.511e-7, 1.720e-5
-0.034, 2.520e-7, 1.722e-5
-0.035, 2.523e-7, 1.725e-5
-0.036, 2.544e-7, 1.728e-5
-0.037, 2.507e-7, 1.730e-5
-0.038, 2.529e-7, 1.733e-5
-0.039, 2.548e-7, 1.735e-5
-0.040, 2.576e-7, 1.738e-5
-0.041, 2.674e-7, 1.740e-5
-0.042, 2.725e-7, 1.743e-5
-0.043, 2.760e-7, 1.746e-5
-0.044, 2.770e-7, 1.749e-5
-0.045, 2.768e-7, 1.751e-5
-0.046, 2.770e-7, 1.754e-5
-0.047, 2.779e-7, 1.757e-5
-0.048, 2.787e-7, 1.760e-5
-0.049, 2.792e-7, 1.763e-5
-0.050, 2.792e-7, 1.765e-5
-0.051, 2.792e-7, 1.768e-5
-0.052, 2.798e-7, 1.771e-5
-0.053, 2.796e-7, 1.774e-5
-0.054, 2.796e-7, 1.776e-5
-0.055, 2.812e-7, 1.779e-5
-0.056, 2.837e-7, 1.782e-5
-0.057, 2.884e-7, 1.785e-5
-0.058, 2.942e-7, 1.788e-5
-0.059, 2.983e-7, 1.791e-5
-0.060, 2.983e-7, 1.794e-5
-0.061, 3.067e-7, 1.797e-5
-0.062, 3.078e-7, 1.800e-5
-0.063, 3.141e-7, 1.803e-5
-0.064, 3.234e-7, 1.806e-5
-0.065, 3.250e-7, 1.810e-5
-0.066, 3.216e-7, 1.813e-5
-0.067, 3.237e-7, 1.816e-5
-0.068, 3.252e-7, 1.819e-5
-0.069, 3.277e-7, 1.823e-5
-0.070, 3.280e-7, 1.826e-5
-0.071, 3.281e-7, 1.829e-5
-0.072, 3.281e-7, 1.833e-5
-0.073, 3.280e-7, 1.836e-5
-0.074, 3.278e-7, 1.839e-5
-0.075, 3.280e-7, 1.842e-5
-0.076, 3.279e-7, 1.846e-5
-0.077, 3.278e-7, 1.849e-5
-0.078, 3.301e-7, 1.852e-5
-0.079, 3.505e-7, 1.856e-5
-0.080, 3.720e-7, 1.859e-5
-0.081, 3.730e-7, 1.863e-5
-0.082, 3.681e-7, 1.867e-5
-0.083, 3.612e-7, 1.870e-5
-0.084, 3.460e-7, 1.874e-5
-0.085, 3.378e-7, 1.877e-5
-0.086, 3.360e-7, 1.881e-5
-0.087, 3.331e-7, 1.884e-5
-0.088, 3.304e-7, 1.887e-5
-0.089, 3.311e-7, 1.891e-5
-0.090, 3.334e-7, 1.894e-5
-0.091, 3.347e-7, 1.897e-5
-0.092, 3.346e-7, 1.901e-5
-0.093, 3.324e-7, 1.904e-5
-0.094, 3.347e-7, 1.907e-5
-0.095, 3.374e-7, 1.911e-5
-0.096, 3.351e-7, 1.914e-5
-0.097, 3.320e-7, 1.917e-5
-0.098, 3.315e-7, 1.921e-5
-0.099, 3.329e-7, 1.924e-5
-0.100, 3.336e-7, 1.927e-5
-0.101, 3.353e-7, 1.931e-5
-0.102, 3.497e-7, 1.934e-5
-0.103, 3.601e-7, 1.938e-5
-0.104, 3.647e-7, 1.941e-5
-0.105, 3.694e-7, 1.945e-5
-0.106, 3.697e-7, 1.949e-5
-0.107, 3.645e-7, 1.952e-5
-0.108, 3.684e-7, 1.956e-5
-0.109, 3.744e-7, 1.960e-5
-0.110, 3.764e-7, 1.964e-5
-0.111, 3.767e-7, 1.967e-5
-0.112, 3.767e-7, 1.971e-5
-0.113, 3.764e-7, 1.975e-5
-0.114, 3.755e-7, 1.979e-5
-0.115, 3.747e-7, 1.982e-5
-0.116, 3.703e-7, 1.986e-5
-0.117, 3.612e-7, 1.990e-5
-0.118, 3.676e-7, 1.993e-5
-0.119, 3.696e-7, 1.997e-5
-0.120, 3.685e-7, 2.001e-5
-0.121, 3.712e-7, 2.005e-5
-0.122, 3.745e-7, 2.008e-5
-0.123, 3.760e-7, 2.012e-5
-0.124, 3.774e-7, 2.016e-5
-0.125, 3.805e-7, 2.020e-5
-0.126, 3.778e-7, 2.023e-5
-0.127, 3.770e-7, 2.027e-5
-0.128, 3.768e-7, 2.031e-5
-0.129, 3.772e-7, 2.035e-5
-0.130, 3.770e-7, 2.038e-5
-0.131, 3.763e-7, 2.042e-5
-0.132, 3.753e-7, 2.046e-5
-0.133, 3.733e-7, 2.050e-5
-0.134, 3.761e-7, 2.053e-5
-0.135, 3.768e-7, 2.057e-5
-0.136, 3.759e-7, 2.061e-5
-0.137, 3.750e-7, 2.065e-5
-0.138, 3.757e-7, 2.069e-5
-0.139, 3.759e-7, 2.072e-5
-0.140, 3.763e-7, 2.076e-5
-0.141, 3.771e-7, 2.080e-5
-0.142, 3.794e-7, 2.084e-5
-0.143, 3.786e-7, 2.087e-5
-0.144, 3.775e-7, 2.091e-5
-0.145, 3.771e-7, 2.095e-5
-0.146, 3.768e-7, 2.099e-5
-0.147, 3.769e-7, 2.102e-5
-0.148, 3.768e-7, 2.106e-5
-0.149, 3.767e-7, 2.110e-5
-0.150, 3.768e-7, 2.114e-5
-0.151, 3.771e-7, 2.118e-5
-0.152, 3.772e-7, 2.121e-5
-0.153, 3.796e-7, 2.125e-5
-0.154, 3.934e-7, 2.129e-5
-0.155, 4.093e-7, 2.133e-5
-0.156, 4.107e-7, 2.137e-5
-0.157, 4.014e-7, 2.141e-5
-0.158, 3.998e-7, 2.145e-5
-0.159, 4.024e-7, 2.149e-5
-0.160, 4.177e-7, 2.153e-5
-0.161, 4.243e-7, 2.158e-5
-0.162, 4.222e-7, 2.162e-5
-0.163, 4.200e-7, 2.166e-5
-0.164, 4.169e-7, 2.170e-5
-0.165, 4.167e-7, 2.174e-5
-0.166, 4.176e-7, 2.179e-5
-0.167, 4.151e-7, 2.183e-5
-0.168, 4.117e-7, 2.187e-5
-0.169, 4.231e-7, 2.191e-5
-0.170, 4.249e-7, 2.195e-5
-0.171, 4.254e-7, 2.200e-5
-0.172, 4.254e-7, 2.204e-5
-0.173, 4.255e-7, 2.208e-5
-0.174, 4.260e-7, 2.212e-5
-0.175, 4.262e-7, 2.217e-5
-0.176, 4.272e-7, 2.221e-5
-0.177, 4.335e-7, 2.225e-5
-0.178, 4.408e-7, 2.230e-5
-0.179, 4.358e-7, 2.234e-5
-0.180, 4.449e-7, 2.238e-5
-0.181, 4.370e-7, 2.243e-5
-0.182, 4.438e-7, 2.247e-5
-0.183, 4.389e-7, 2.252e-5
-0.184, 4.446e-7, 2.256e-5
-0.185, 4.484e-7, 2.261e-5
-0.186, 4.613e-7, 2.265e-5
-0.187, 4.666e-7, 2.270e-5
-0.188, 4.735e-7, 2.275e-5
-0.189, 4.726e-7, 2.279e-5
-0.190, 4.734e-7, 2.284e-5
-0.191, 4.743e-7, 2.289e-5
-0.192, 4.755e-7, 2.294e-5
-0.193, 4.765e-7, 2.298e-5
-0.194, 4.757e-7, 2.303e-5
-0.195, 4.774e-7, 2.308e-5
-0.196, 4.814e-7, 2.313e-5
-0.197, 4.850e-7, 2.318e-5
-0.198, 4.824e-7, 2.322e-5
-0.199, 4.843e-7, 2.327e-5
-0.200, 4.813e-7, 2.332e-5
-0.201, 4.866e-7, 2.337e-5
-0.202, 4.872e-7, 2.342e-5
-0.203, 4.987e-7, 2.347e-5
-0.204, 5.047e-7, 2.352e-5
-0.205, 5.195e-7, 2.357e-5
-0.206, 5.210e-7, 2.362e-5
-0.207, 5.237e-7, 2.367e-5
-0.208, 5.249e-7, 2.373e-5
-0.209, 5.254e-7, 2.378e-5
-0.210, 5.247e-7, 2.383e-5
-0.211, 5.257e-7, 2.388e-5
-0.212, 5.269e-7, 2.394e-5
-0.213, 5.277e-7, 2.399e-5
-0.214, 5.364e-7, 2.404e-5
-0.215, 5.474e-7, 2.410e-5
-0.216, 5.534e-7, 2.415e-5
-0.217, 5.643e-7, 2.421e-5
-0.218, 5.664e-7, 2.427e-5
-0.219, 5.629e-7, 2.432e-5
-0.220, 5.639e-7, 2.438e-5
-0.221, 5.657e-7, 2.444e-5
-0.222, 5.715e-7, 2.449e-5
-0.223, 5.731e-7, 2.455e-5
-0.224, 5.745e-7, 2.461e-5
-0.225, 5.743e-7, 2.467e-5
-0.226, 5.744e-7, 2.472e-5
-0.227, 5.753e-7, 2.478e-5
-0.228, 5.793e-7, 2.484e-5
-0.229, 5.881e-7, 2.490e-5
-0.230, 6.187e-7, 2.496e-5
-0.231, 6.211e-7, 2.502e-5
-0.232, 6.208e-7, 2.508e-5
-0.233, 6.203e-7, 2.515e-5
-0.234, 6.181e-7, 2.521e-5
-0.235, 6.189e-7, 2.527e-5
-0.236, 6.186e-7, 2.533e-5
-0.237, 6.196e-7, 2.539e-5
-0.238, 6.210e-7, 2.545e-5
-0.239, 6.233e-7, 2.552e-5
-0.240, 6.250e-7, 2.558e-5
-0.241, 6.268e-7, 2.564e-5
-0.242, 6.239e-7, 2.570e-5
-0.243, 6.268e-7, 2.577e-5
-0.244, 6.289e-7, 2.583e-5
-0.245, 6.309e-7, 2.589e-5
-0.246, 6.326e-7, 2.596e-5
-0.247, 6.393e-7, 2.602e-5
-0.248, 6.505e-7, 2.609e-5
-0.249, 6.595e-7, 2.615e-5
-0.250, 6.628e-7, 2.622e-5
-0.251, 6.623e-7, 2.628e-5
-0.252, 6.642e-7, 2.635e-5
-0.253, 6.664e-7, 2.642e-5
-0.254, 6.689e-7, 2.648e-5
-0.255, 6.705e-7, 2.655e-5
-0.256, 6.731e-7, 2.662e-5
-0.257, 6.818e-7, 2.669e-5
-0.258, 6.888e-7, 2.676e-5
-0.259, 6.949e-7, 2.683e-5
-0.260, 6.908e-7, 2.689e-5
-0.261, 6.895e-7, 2.696e-5
-0.262, 6.890e-7, 2.703e-5
-0.263, 6.934e-7, 2.710e-5
-0.264, 6.925e-7, 2.717e-5
-0.265, 7.094e-7, 2.724e-5
-0.266, 7.115e-7, 2.731e-5
-0.267, 7.184e-7, 2.738e-5
-0.268, 7.219e-7, 2.746e-5
-0.269, 7.221e-7, 2.753e-5
-0.270, 7.295e-7, 2.760e-5
-0.271, 7.325e-7, 2.768e-5
-0.272, 7.379e-7, 2.775e-5
-0.273, 7.389e-7, 2.782e-5
-0.274, 7.444e-7, 2.790e-5
-0.275, 7.517e-7, 2.797e-5
-0.276, 7.540e-7, 2.805e-5
-0.277, 7.639e-7, 2.812e-5
-0.278, 7.698e-7, 2.820e-5
-0.279, 7.856e-7, 2.828e-5
-0.280, 7.869e-7, 2.836e-5
-0.281, 7.872e-7, 2.844e-5
-0.282, 7.903e-7, 2.852e-5
-0.283, 7.993e-7, 2.860e-5
-0.284, 8.143e-7, 2.868e-5
-0.285, 8.164e-7, 2.876e-5
-0.286, 8.168e-7, 2.884e-5
-0.287, 8.189e-7, 2.892e-5
-0.288, 8.240e-7, 2.901e-5
-0.289, 8.532e-7, 2.909e-5
-0.290, 8.947e-7, 2.918e-5
-0.291, 9.527e-7, 2.928e-5
-0.292, 9.621e-7, 2.937e-5
-0.293, 9.582e-7, 2.947e-5
-0.294, 9.637e-7, 2.956e-5
-0.295, 9.922e-7, 2.966e-5
-0.296, 1.010e-6, 2.976e-5
-0.297, 1.012e-6, 2.986e-5
-0.298, 1.017e-6, 2.997e-5
-0.299, 1.052e-6, 3.007e-5
