Nov. 2, 2023   13:39:28
Cyclic Voltammetry
File: c:\users\dell\desktop\电化学数据\114514\met_.txt
Data Source:  Experiment
Instrument Model:  CHI600B
Header: 
Note: 

Init E (V) = -0.3
High E (V) = 1.25
Low E (V) = -0.3
Init P/N = P
Scan Rate (V/s) = 0.1
Segment = 8
Sample Interval (V) = 0.01
Quiet Time (sec) = 1
Sensitivity (A/V) = 1e-5

Segment 1:
Ep = 0.490V
ip = -4.719e-6A
Ah = -5.187e-6C

Segment 2:
Ep = 0.410V
ip = 2.917e-6A
Ah = 2.431e-6C

Segment 3:
Ep = 0.480V
ip = -7.996e-6A
Ah = -7.777e-6C

Segment 4:
Ep = 0.420V
ip = 3.001e-6A
Ah = 2.275e-6C

Segment 5:
Ep = 0.480V
ip = -8.536e-6A
Ah = -7.651e-6C

Segment 6:
Ep = 0.420V
ip = 3.086e-6A
Ah = 2.501e-6C

Ep = -0.290V
ip = 2.758e-6A
Ah = 3.255e-6C

Segment 7:
Ep = 0.480V
ip = -7.901e-6A
Ah = -6.887e-6C

Ep = 1.240V
ip = -6.260e-7A
Ah = -1.647e-7C

Segment 8:
Ep = 0.420V
ip = 3.225e-6A
Ah = 2.573e-6C

Ep = -0.290V
ip = 2.262e-6A
Ah = 3.119e-6C

Potential/V, Current/A, Charge/C

Segment 1:
-0.290, 4.285e-7, 4.285e-8
-0.280, -2.239e-7, 2.046e-8
-0.270, -9.305e-8, 1.115e-8
-0.260, -4.751e-7, -3.636e-8
-0.250, -6.951e-7, -1.059e-7
-0.240, -4.111e-7, -1.470e-7
-0.230, -4.716e-7, -1.941e-7
-0.220, -8.423e-7, -2.784e-7
-0.210, -6.627e-7, -3.446e-7
-0.200, -7.329e-7, -4.179e-7
-0.190, -5.985e-7, -4.778e-7
-0.180, -5.715e-7, -5.349e-7
-0.170, -8.597e-7, -6.209e-7
-0.160, -7.626e-7, -6.972e-7
-0.150, -4.396e-7, -7.411e-7
-0.140, -3.677e-7, -7.779e-7
-0.130, -4.197e-7, -8.199e-7
-0.120, -4.313e-7, -8.630e-7
-0.110, -5.844e-7, -9.214e-7
-0.100, -1.583e-7, -9.372e-7
-0.090, -4.511e-7, -9.823e-7
-0.080, -5.632e-7, -1.039e-6
-0.070, -5.809e-7, -1.097e-6
-0.060, -5.235e-8, -1.102e-6
-0.050, 3.453e-8, -1.099e-6
-0.040, -2.300e-7, -1.122e-6
-0.030, 2.774e-7, -1.094e-6
-0.020, 2.500e-7, -1.069e-6
-0.010, 2.411e-7, -1.045e-6
0.000, 4.748e-7, -9.972e-7
0.010, 5.725e-7, -9.399e-7
0.020, 3.280e-7, -9.071e-7
0.030, 3.741e-7, -8.697e-7
0.040, 6.183e-7, -8.079e-7
0.050, 8.253e-7, -7.254e-7
0.060, 5.068e-7, -6.747e-7
0.070, 2.641e-7, -6.483e-7
0.080, 3.304e-7, -6.153e-7
0.090, -1.333e-9, -6.154e-7
0.100, 5.032e-7, -5.651e-7
0.110, 4.634e-7, -5.187e-7
0.120, 3.115e-7, -4.876e-7
0.130, 5.935e-8, -4.816e-7
0.140, 2.135e-7, -4.603e-7
0.150, -7.766e-9, -4.611e-7
0.160, -4.334e-7, -5.044e-7
0.170, -6.146e-7, -5.659e-7
0.180, -7.545e-7, -6.413e-7
0.190, -5.703e-7, -6.983e-7
0.200, -7.605e-8, -7.059e-7
0.210, -1.967e-7, -7.256e-7
0.220, -5.352e-7, -7.791e-7
0.230, -4.226e-9, -7.796e-7
0.240, -1.599e-7, -7.955e-7
0.250, -2.816e-7, -8.237e-7
0.260, -3.505e-7, -8.588e-7
0.270, -3.830e-7, -8.971e-7
0.280, -5.790e-7, -9.550e-7
0.290, -7.038e-7, -1.025e-6
0.300, -8.342e-7, -1.109e-6
0.310, -1.000e-6, -1.209e-6
0.320, -1.369e-6, -1.346e-6
0.330, -1.567e-6, -1.502e-6
0.340, -1.887e-6, -1.691e-6
0.350, -2.380e-6, -1.929e-6
0.360, -2.722e-6, -2.201e-6
0.370, -3.044e-6, -2.506e-6
0.380, -3.423e-6, -2.848e-6
0.390, -3.850e-6, -3.233e-6
0.400, -4.644e-6, -3.697e-6
0.410, -5.101e-6, -4.207e-6
0.420, -5.452e-6, -4.753e-6
0.430, -5.853e-6, -5.338e-6
0.440, -6.215e-6, -5.959e-6
0.450, -6.552e-6, -6.615e-6
0.460, -6.869e-6, -7.302e-6
0.470, -7.043e-6, -8.006e-6
0.480, -7.107e-6, -8.717e-6
0.490, -7.231e-6, -9.440e-6
0.500, -7.145e-6, -1.015e-5
0.510, -7.055e-6, -1.086e-5
0.520, -6.819e-6, -1.154e-5
0.530, -6.600e-6, -1.220e-5
0.540, -6.357e-6, -1.284e-5
0.550, -6.057e-6, -1.344e-5
0.560, -5.744e-6, -1.402e-5
0.570, -5.420e-6, -1.456e-5
0.580, -5.179e-6, -1.508e-5
0.590, -4.861e-6, -1.556e-5
0.600, -4.599e-6, -1.602e-5
0.610, -4.386e-6, -1.646e-5
0.620, -4.126e-6, -1.687e-5
0.630, -4.005e-6, -1.727e-5
0.640, -3.836e-6, -1.766e-5
0.650, -3.675e-6, -1.803e-5
0.660, -3.543e-6, -1.838e-5
0.670, -3.296e-6, -1.871e-5
0.680, -3.416e-6, -1.905e-5
0.690, -3.277e-6, -1.938e-5
0.700, -3.152e-6, -1.969e-5
0.710, -3.192e-6, -2.001e-5
0.720, -3.171e-6, -2.033e-5
0.730, -3.111e-6, -2.064e-5
0.740, -3.133e-6, -2.096e-5
0.750, -3.124e-6, -2.127e-5
0.760, -3.147e-6, -2.158e-5
0.770, -3.159e-6, -2.190e-5
0.780, -3.162e-6, -2.221e-5
0.790, -3.180e-6, -2.253e-5
0.800, -3.208e-6, -2.285e-5
0.810, -3.256e-6, -2.318e-5
0.820, -3.352e-6, -2.351e-5
0.830, -3.432e-6, -2.386e-5
0.840, -3.472e-6, -2.420e-5
0.850, -3.583e-6, -2.456e-5
0.860, -3.700e-6, -2.493e-5
0.870, -3.782e-6, -2.531e-5
0.880, -3.932e-6, -2.570e-5
0.890, -3.885e-6, -2.609e-5
0.900, -4.254e-6, -2.652e-5
0.910, -4.300e-6, -2.695e-5
0.920, -4.474e-6, -2.740e-5
0.930, -4.605e-6, -2.786e-5
0.940, -4.775e-6, -2.833e-5
0.950, -4.923e-6, -2.883e-5
0.960, -5.096e-6, -2.934e-5
0.970, -5.269e-6, -2.986e-5
0.980, -5.427e-6, -3.040e-5
0.990, -5.326e-6, -3.094e-5
1.000, -5.582e-6, -3.150e-5
1.010, -5.733e-6, -3.207e-5
1.020, -5.915e-6, -3.266e-5
1.030, -6.116e-6, -3.327e-5
1.040, -6.244e-6, -3.390e-5
1.050, -6.377e-6, -3.453e-5
1.060, -6.256e-6, -3.516e-5
1.070, -6.529e-6, -3.581e-5
1.080, -6.587e-6, -3.647e-5
1.090, -6.616e-6, -3.713e-5
1.100, -6.644e-6, -3.780e-5
1.110, -6.626e-6, -3.846e-5
1.120, -6.694e-6, -3.913e-5
1.130, -6.763e-6, -3.981e-5
1.140, -6.766e-6, -4.048e-5
1.150, -6.824e-6, -4.116e-5
1.160, -6.777e-6, -4.184e-5
1.170, -6.878e-6, -4.253e-5
1.180, -6.928e-6, -4.322e-5
1.190, -6.880e-6, -4.391e-5
1.200, -7.013e-6, -4.461e-5
1.210, -7.088e-6, -4.532e-5
1.220, -7.157e-6, -4.604e-5
1.230, -7.062e-6, -4.674e-5
1.240, -7.430e-6, -4.749e-5

Segment 2:
1.250, -6.636e-6, -4.815e-5
1.240, -5.108e-6, -4.866e-5
1.230, -4.244e-6, -4.908e-5
1.220, -3.482e-6, -4.943e-5
1.210, -3.034e-6, -4.974e-5
1.200, -2.620e-6, -5.000e-5
1.190, -2.334e-6, -5.023e-5
1.180, -2.086e-6, -5.044e-5
1.170, -1.855e-6, -5.063e-5
1.160, -1.684e-6, -5.079e-5
1.150, -1.533e-6, -5.095e-5
1.140, -1.402e-6, -5.109e-5
1.130, -1.290e-6, -5.122e-5
1.120, -1.195e-6, -5.134e-5
1.110, -1.098e-6, -5.145e-5
1.100, -1.022e-6, -5.155e-5
1.090, -9.674e-7, -5.165e-5
1.080, -8.877e-7, -5.173e-5
1.070, -8.289e-7, -5.182e-5
1.060, -7.712e-7, -5.189e-5
1.050, -7.134e-7, -5.197e-5
1.040, -6.731e-7, -5.203e-5
1.030, -6.200e-7, -5.209e-5
1.020, -5.758e-7, -5.215e-5
1.010, -5.420e-7, -5.221e-5
1.000, -4.903e-7, -5.226e-5
0.990, -4.551e-7, -5.230e-5
0.980, -4.270e-7, -5.234e-5
0.970, -3.862e-7, -5.238e-5
0.960, -3.220e-7, -5.241e-5
0.950, -2.809e-7, -5.244e-5
0.940, -2.043e-7, -5.246e-5
0.930, -1.672e-7, -5.248e-5
0.920, -1.373e-7, -5.249e-5
0.910, -1.016e-7, -5.250e-5
0.900, -7.925e-8, -5.251e-5
0.890, -5.640e-8, -5.252e-5
0.880, -2.234e-8, -5.252e-5
0.870, -4.120e-9, -5.252e-5
0.860, 2.387e-8, -5.252e-5
0.850, 5.448e-8, -5.251e-5
0.840, 6.921e-8, -5.250e-5
0.830, 9.675e-8, -5.250e-5
0.820, 1.243e-7, -5.248e-5
0.810, 1.413e-7, -5.247e-5
0.800, 1.707e-7, -5.245e-5
0.790, 1.953e-7, -5.243e-5
0.780, 2.121e-7, -5.241e-5
0.770, 2.462e-7, -5.239e-5
0.760, 2.731e-7, -5.236e-5
0.750, 2.924e-7, -5.233e-5
0.740, 3.234e-7, -5.230e-5
0.730, 3.551e-7, -5.226e-5
0.720, 3.806e-7, -5.222e-5
0.710, 4.238e-7, -5.218e-5
0.700, 4.483e-7, -5.214e-5
0.690, 4.755e-7, -5.209e-5
0.680, 5.333e-7, -5.204e-5
0.670, 5.624e-7, -5.198e-5
0.660, 6.031e-7, -5.192e-5
0.650, 6.601e-7, -5.185e-5
0.640, 6.899e-7, -5.178e-5
0.630, 7.577e-7, -5.171e-5
0.620, 8.244e-7, -5.163e-5
0.610, 8.743e-7, -5.154e-5
0.600, 9.462e-7, -5.144e-5
0.590, 1.028e-6, -5.134e-5
0.580, 1.097e-6, -5.123e-5
0.570, 1.195e-6, -5.111e-5
0.560, 1.310e-6, -5.098e-5
0.550, 1.407e-6, -5.084e-5
0.540, 1.564e-6, -5.068e-5
0.530, 1.708e-6, -5.051e-5
0.520, 1.860e-6, -5.033e-5
0.510, 2.056e-6, -5.012e-5
0.500, 2.257e-6, -4.990e-5
0.490, 2.433e-6, -4.965e-5
0.480, 2.729e-6, -4.938e-5
0.470, 3.056e-6, -4.907e-5
0.460, 3.352e-6, -4.874e-5
0.450, 3.679e-6, -4.837e-5
0.440, 3.974e-6, -4.797e-5
0.430, 4.254e-6, -4.755e-5
0.420, 4.482e-6, -4.710e-5
0.410, 4.547e-6, -4.665e-5
0.400, 4.460e-6, -4.620e-5
0.390, 4.214e-6, -4.578e-5
0.380, 3.716e-6, -4.541e-5
0.370, 3.084e-6, -4.510e-5
0.360, 2.401e-6, -4.486e-5
0.350, 1.605e-6, -4.470e-5
0.340, 9.498e-7, -4.460e-5
0.330, 2.910e-7, -4.457e-5
0.320, -1.483e-7, -4.459e-5
0.310, -7.194e-7, -4.466e-5
0.300, -7.332e-7, -4.473e-5
0.290, -8.475e-7, -4.482e-5
0.280, -6.815e-7, -4.489e-5
0.270, -6.517e-7, -4.495e-5
0.260, -4.924e-7, -4.500e-5
0.250, -6.857e-7, -4.507e-5
0.240, -5.486e-7, -4.512e-5
0.230, -1.190e-8, -4.512e-5
0.220, 4.009e-7, -4.508e-5
0.210, 5.043e-7, -4.503e-5
0.200, 7.040e-7, -4.496e-5
0.190, 9.189e-7, -4.487e-5
0.180, 1.131e-6, -4.476e-5
0.170, 1.214e-6, -4.464e-5
0.160, 1.520e-6, -4.449e-5
0.150, 1.138e-6, -4.437e-5
0.140, 1.292e-6, -4.424e-5
0.130, 1.175e-6, -4.412e-5
0.120, 1.829e-6, -4.394e-5
0.110, 1.705e-6, -4.377e-5
0.100, 1.380e-6, -4.363e-5
0.090, 1.748e-6, -4.346e-5
0.080, 1.786e-6, -4.328e-5
0.070, 1.732e-6, -4.311e-5
0.060, 1.832e-6, -4.292e-5
0.050, 1.745e-6, -4.275e-5
0.040, 1.783e-6, -4.257e-5
0.030, 2.054e-6, -4.237e-5
0.020, 2.068e-6, -4.216e-5
0.010, 2.053e-6, -4.195e-5
0.000, 2.083e-6, -4.175e-5
-0.010, 1.844e-6, -4.156e-5
-0.020, 2.124e-6, -4.135e-5
-0.030, 2.266e-6, -4.112e-5
-0.040, 2.411e-6, -4.088e-5
-0.050, 2.422e-6, -4.064e-5
-0.060, 1.999e-6, -4.044e-5
-0.070, 2.572e-6, -4.018e-5
-0.080, 2.859e-6, -3.990e-5
-0.090, 2.641e-6, -3.963e-5
-0.100, 3.186e-6, -3.931e-5
-0.110, 2.859e-6, -3.903e-5
-0.120, 3.276e-6, -3.870e-5
-0.130, 3.725e-6, -3.833e-5
-0.140, 3.510e-6, -3.798e-5
-0.150, 3.934e-6, -3.758e-5
-0.160, 4.004e-6, -3.718e-5
-0.170, 3.928e-6, -3.679e-5
-0.180, 4.280e-6, -3.636e-5
-0.190, 4.368e-6, -3.592e-5
-0.200, 4.277e-6, -3.550e-5
-0.210, 4.976e-6, -3.500e-5
-0.220, 4.454e-6, -3.455e-5
-0.230, 4.756e-6, -3.408e-5
-0.240, 5.036e-6, -3.357e-5
-0.250, 4.727e-6, -3.310e-5
-0.260, 4.980e-6, -3.260e-5
-0.270, 5.207e-6, -3.208e-5
-0.280, 5.230e-6, -3.156e-5
-0.290, 5.724e-6, -3.099e-5
-0.300, 2.884e-6, -3.070e-5

Segment 3:
-0.290, 1.297e-6, -3.057e-5
-0.280, 3.501e-7, -3.053e-5
-0.270, 3.979e-7, -3.049e-5
-0.260, 3.640e-8, -3.049e-5
-0.250, 1.919e-8, -3.049e-5
-0.240, -8.053e-8, -3.050e-5
-0.230, -1.553e-7, -3.051e-5
-0.220, -3.644e-7, -3.055e-5
-0.210, -6.473e-7, -3.061e-5
-0.200, -3.042e-7, -3.064e-5
-0.190, -5.615e-7, -3.070e-5
-0.180, -3.144e-7, -3.073e-5
-0.170, -3.677e-7, -3.077e-5
-0.160, -1.077e-7, -3.078e-5
-0.150, -2.745e-7, -3.081e-5
-0.140, -1.953e-7, -3.083e-5
-0.130, 1.968e-7, -3.081e-5
-0.120, -5.862e-8, -3.081e-5
-0.110, 2.490e-7, -3.079e-5
-0.100, 9.932e-8, -3.078e-5
-0.090, 3.278e-7, -3.074e-5
-0.080, 3.537e-7, -3.071e-5
-0.070, 4.851e-7, -3.066e-5
-0.060, 3.204e-7, -3.063e-5
-0.050, 8.030e-7, -3.055e-5
-0.040, 7.078e-7, -3.048e-5
-0.030, 1.115e-6, -3.037e-5
-0.020, 8.072e-7, -3.029e-5
-0.010, 7.484e-7, -3.021e-5
-0.000, 1.166e-6, -3.009e-5
0.010, 9.747e-7, -3.000e-5
0.020, 1.092e-6, -2.989e-5
0.030, 8.787e-7, -2.980e-5
0.040, 9.505e-7, -2.970e-5
0.050, 1.150e-6, -2.959e-5
0.060, 1.036e-6, -2.949e-5
0.070, 6.551e-7, -2.942e-5
0.080, 7.706e-7, -2.934e-5
0.090, 6.288e-7, -2.928e-5
0.100, 5.342e-7, -2.923e-5
0.110, 5.924e-7, -2.917e-5
0.120, 7.008e-7, -2.910e-5
0.130, 3.649e-7, -2.906e-5
0.140, 2.348e-7, -2.904e-5
0.150, 3.946e-7, -2.900e-5
0.160, 1.851e-7, -2.898e-5
0.170, 1.045e-7, -2.897e-5
0.180, 2.334e-8, -2.897e-5
0.190, -5.379e-7, -2.902e-5
0.200, -3.462e-7, -2.906e-5
0.210, -3.726e-7, -2.909e-5
0.220, -5.523e-7, -2.915e-5
0.230, -8.733e-7, -2.924e-5
0.240, -9.039e-7, -2.933e-5
0.250, -8.763e-7, -2.941e-5
0.260, -1.127e-6, -2.953e-5
0.270, -1.241e-6, -2.965e-5
0.280, -1.311e-6, -2.978e-5
0.290, -1.485e-6, -2.993e-5
0.300, -1.630e-6, -3.009e-5
0.310, -2.091e-6, -3.030e-5
0.320, -2.386e-6, -3.054e-5
0.330, -2.488e-6, -3.079e-5
0.340, -3.009e-6, -3.109e-5
0.350, -3.388e-6, -3.143e-5
0.360, -3.859e-6, -3.181e-5
0.370, -4.277e-6, -3.224e-5
0.380, -5.148e-6, -3.276e-5
0.390, -5.921e-6, -3.335e-5
0.400, -6.678e-6, -3.402e-5
0.410, -7.603e-6, -3.478e-5
0.420, -8.265e-6, -3.560e-5
0.430, -9.346e-6, -3.654e-5
0.440, -1.001e-5, -3.754e-5
0.450, -1.035e-5, -3.857e-5
0.460, -1.078e-5, -3.965e-5
0.470, -1.089e-5, -4.074e-5
0.480, -1.108e-5, -4.185e-5
0.490, -1.098e-5, -4.295e-5
0.500, -1.094e-5, -4.404e-5
0.510, -1.097e-5, -4.514e-5
0.520, -1.012e-5, -4.615e-5
0.530, -9.503e-6, -4.710e-5
0.540, -8.958e-6, -4.800e-5
0.550, -8.246e-6, -4.882e-5
0.560, -7.777e-6, -4.960e-5
0.570, -7.016e-6, -5.030e-5
0.580, -6.837e-6, -5.098e-5
0.590, -6.256e-6, -5.161e-5
0.600, -5.846e-6, -5.219e-5
0.610, -5.451e-6, -5.274e-5
0.620, -5.067e-6, -5.325e-5
0.630, -4.842e-6, -5.373e-5
0.640, -4.603e-6, -5.419e-5
0.650, -4.303e-6, -5.462e-5
0.660, -4.108e-6, -5.503e-5
0.670, -3.923e-6, -5.542e-5
0.680, -3.744e-6, -5.580e-5
0.690, -3.436e-6, -5.614e-5
0.700, -3.525e-6, -5.649e-5
0.710, -3.428e-6, -5.684e-5
0.720, -3.356e-6, -5.717e-5
0.730, -3.212e-6, -5.749e-5
0.740, -3.223e-6, -5.782e-5
0.750, -3.209e-6, -5.814e-5
0.760, -3.159e-6, -5.845e-5
0.770, -3.164e-6, -5.877e-5
0.780, -3.168e-6, -5.909e-5
0.790, -3.139e-6, -5.940e-5
0.800, -3.112e-6, -5.971e-5
0.810, -3.349e-6, -6.005e-5
0.820, -3.246e-6, -6.037e-5
0.830, -3.343e-6, -6.071e-5
0.840, -3.376e-6, -6.104e-5
0.850, -3.464e-6, -6.139e-5
0.860, -3.622e-6, -6.175e-5
0.870, -3.699e-6, -6.212e-5
0.880, -3.795e-6, -6.250e-5
0.890, -3.969e-6, -6.290e-5
0.900, -4.064e-6, -6.330e-5
0.910, -4.210e-6, -6.373e-5
0.920, -4.424e-6, -6.417e-5
0.930, -4.537e-6, -6.462e-5
0.940, -4.718e-6, -6.509e-5
0.950, -4.894e-6, -6.558e-5
0.960, -5.069e-6, -6.609e-5
0.970, -5.132e-6, -6.660e-5
0.980, -5.481e-6, -6.715e-5
0.990, -5.578e-6, -6.771e-5
1.000, -5.682e-6, -6.828e-5
1.010, -5.901e-6, -6.887e-5
1.020, -6.008e-6, -6.947e-5
1.030, -6.152e-6, -7.008e-5
1.040, -6.253e-6, -7.071e-5
1.050, -6.354e-6, -7.134e-5
1.060, -6.475e-6, -7.199e-5
1.070, -6.338e-6, -7.262e-5
1.080, -6.538e-6, -7.328e-5
1.090, -6.693e-6, -7.395e-5
1.100, -6.719e-6, -7.462e-5
1.110, -6.413e-6, -7.526e-5
1.120, -6.758e-6, -7.594e-5
1.130, -6.952e-6, -7.663e-5
1.140, -6.976e-6, -7.733e-5
1.150, -7.035e-6, -7.803e-5
1.160, -6.690e-6, -7.870e-5
1.170, -7.136e-6, -7.942e-5
1.180, -7.080e-6, -8.012e-5
1.190, -7.212e-6, -8.085e-5
1.200, -7.329e-6, -8.158e-5
1.210, -7.437e-6, -8.232e-5
1.220, -7.516e-6, -8.307e-5
1.230, -7.592e-6, -8.383e-5
1.240, -7.778e-6, -8.461e-5
1.250, -7.013e-6, -8.531e-5

Segment 4:
1.240, -5.545e-6, -8.587e-5
1.230, -4.528e-6, -8.632e-5
1.220, -3.856e-6, -8.670e-5
1.210, -3.341e-6, -8.704e-5
1.200, -2.928e-6, -8.733e-5
1.190, -2.593e-6, -8.759e-5
1.180, -2.333e-6, -8.782e-5
1.170, -2.103e-6, -8.803e-5
1.160, -1.897e-6, -8.822e-5
1.150, -1.743e-6, -8.840e-5
1.140, -1.558e-6, -8.855e-5
1.130, -1.474e-6, -8.870e-5
1.120, -1.369e-6, -8.884e-5
1.110, -1.263e-6, -8.896e-5
1.100, -1.173e-6, -8.908e-5
1.090, -1.093e-6, -8.919e-5
1.080, -1.028e-6, -8.929e-5
1.070, -9.506e-7, -8.939e-5
1.060, -8.855e-7, -8.948e-5
1.050, -8.177e-7, -8.956e-5
1.040, -7.647e-7, -8.964e-5
1.030, -7.104e-7, -8.971e-5
1.020, -6.487e-7, -8.977e-5
1.010, -6.085e-7, -8.983e-5
1.000, -5.631e-7, -8.989e-5
0.990, -5.105e-7, -8.994e-5
0.980, -4.790e-7, -8.999e-5
0.970, -4.287e-7, -9.003e-5
0.960, -3.850e-7, -9.007e-5
0.950, -3.407e-7, -9.010e-5
0.940, -2.359e-7, -9.013e-5
0.930, -1.979e-7, -9.015e-5
0.920, -1.600e-7, -9.016e-5
0.910, -1.154e-7, -9.017e-5
0.900, -8.446e-8, -9.018e-5
0.890, -6.005e-8, -9.019e-5
0.880, -2.026e-8, -9.019e-5
0.870, 2.173e-9, -9.019e-5
0.860, 2.807e-8, -9.019e-5
0.850, 6.290e-8, -9.018e-5
0.840, 8.356e-8, -9.017e-5
0.830, 1.056e-7, -9.016e-5
0.820, 1.398e-7, -9.015e-5
0.810, 1.685e-7, -9.013e-5
0.800, 1.839e-7, -9.011e-5
0.790, 2.199e-7, -9.009e-5
0.780, 2.372e-7, -9.007e-5
0.770, 2.704e-7, -9.004e-5
0.760, 3.014e-7, -9.001e-5
0.750, 3.165e-7, -8.998e-5
0.740, 3.527e-7, -8.994e-5
0.730, 3.858e-7, -8.990e-5
0.720, 4.083e-7, -8.986e-5
0.710, 4.489e-7, -8.982e-5
0.700, 4.756e-7, -8.977e-5
0.690, 5.124e-7, -8.972e-5
0.680, 5.616e-7, -8.966e-5
0.670, 6.028e-7, -8.960e-5
0.660, 6.612e-7, -8.954e-5
0.650, 6.978e-7, -8.947e-5
0.640, 7.455e-7, -8.939e-5
0.630, 7.980e-7, -8.931e-5
0.620, 8.706e-7, -8.923e-5
0.610, 9.318e-7, -8.913e-5
0.600, 9.939e-7, -8.903e-5
0.590, 1.098e-6, -8.892e-5
0.580, 1.179e-6, -8.881e-5
0.570, 1.269e-6, -8.868e-5
0.560, 1.404e-6, -8.854e-5
0.550, 1.533e-6, -8.839e-5
0.540, 1.674e-6, -8.822e-5
0.530, 1.846e-6, -8.803e-5
0.520, 2.022e-6, -8.783e-5
0.510, 2.232e-6, -8.761e-5
0.500, 2.483e-6, -8.736e-5
0.490, 2.715e-6, -8.709e-5
0.480, 2.992e-6, -8.679e-5
0.470, 3.412e-6, -8.645e-5
0.460, 3.753e-6, -8.607e-5
0.450, 3.879e-6, -8.568e-5
0.440, 4.510e-6, -8.523e-5
0.430, 4.669e-6, -8.477e-5
0.420, 4.773e-6, -8.429e-5
0.410, 4.699e-6, -8.382e-5
0.400, 4.226e-6, -8.340e-5
0.390, 3.626e-6, -8.303e-5
0.380, 2.695e-6, -8.276e-5
0.370, 1.515e-6, -8.261e-5
0.360, 3.975e-7, -8.257e-5
0.350, -8.054e-7, -8.265e-5
0.340, -1.784e-6, -8.283e-5
0.330, -2.456e-6, -8.308e-5
0.320, -3.012e-6, -8.338e-5
0.310, -3.091e-6, -8.369e-5
0.300, -3.133e-6, -8.400e-5
0.290, -3.082e-6, -8.431e-5
0.280, -2.697e-6, -8.458e-5
0.270, -2.404e-6, -8.482e-5
0.260, -2.153e-6, -8.504e-5
0.250, -1.806e-6, -8.522e-5
0.240, -1.070e-6, -8.532e-5
0.230, -9.025e-7, -8.541e-5
0.220, -6.234e-7, -8.548e-5
0.210, -1.072e-7, -8.549e-5
0.200, 1.589e-7, -8.547e-5
0.190, 2.723e-7, -8.544e-5
0.180, 8.576e-7, -8.536e-5
0.170, 9.578e-7, -8.526e-5
0.160, 1.097e-6, -8.515e-5
0.150, 1.282e-6, -8.502e-5
0.140, 1.444e-6, -8.488e-5
0.130, 1.496e-6, -8.473e-5
0.120, 1.544e-6, -8.458e-5
0.110, 1.587e-6, -8.442e-5
0.100, 1.645e-6, -8.425e-5
0.090, 1.839e-6, -8.407e-5
0.080, 1.923e-6, -8.388e-5
0.070, 1.710e-6, -8.370e-5
0.060, 1.573e-6, -8.355e-5
0.050, 1.752e-6, -8.337e-5
0.040, 1.888e-6, -8.318e-5
0.030, 1.819e-6, -8.300e-5
0.020, 1.894e-6, -8.281e-5
0.010, 2.039e-6, -8.261e-5
0.000, 1.943e-6, -8.241e-5
-0.010, 1.884e-6, -8.223e-5
-0.020, 2.064e-6, -8.202e-5
-0.030, 2.099e-6, -8.181e-5
-0.040, 1.801e-6, -8.163e-5
-0.050, 2.317e-6, -8.140e-5
-0.060, 2.237e-6, -8.117e-5
-0.070, 2.376e-6, -8.094e-5
-0.080, 2.441e-6, -8.069e-5
-0.090, 3.212e-6, -8.037e-5
-0.100, 2.808e-6, -8.009e-5
-0.110, 3.187e-6, -7.977e-5
-0.120, 3.599e-6, -7.941e-5
-0.130, 3.580e-6, -7.905e-5
-0.140, 3.631e-6, -7.869e-5
-0.150, 3.761e-6, -7.831e-5
-0.160, 3.536e-6, -7.796e-5
-0.170, 3.693e-6, -7.759e-5
-0.180, 3.814e-6, -7.721e-5
-0.190, 3.956e-6, -7.681e-5
-0.200, 3.974e-6, -7.642e-5
-0.210, 4.367e-6, -7.598e-5
-0.220, 4.370e-6, -7.554e-5
-0.230, 4.180e-6, -7.513e-5
-0.240, 4.665e-6, -7.466e-5
-0.250, 4.199e-6, -7.424e-5
-0.260, 4.443e-6, -7.379e-5
-0.270, 4.742e-6, -7.332e-5
-0.280, 4.835e-6, -7.284e-5
-0.290, 5.136e-6, -7.232e-5
-0.300, 2.990e-6, -7.202e-5

Segment 5:
-0.290, 1.038e-6, -7.192e-5
-0.280, 2.857e-7, -7.189e-5
-0.270, 5.293e-7, -7.184e-5
-0.260, 6.441e-8, -7.183e-5
-0.250, -1.610e-7, -7.185e-5
-0.240, -4.398e-9, -7.185e-5
-0.230, -3.759e-7, -7.189e-5
-0.220, -3.338e-7, -7.192e-5
-0.210, -1.490e-7, -7.194e-5
-0.200, -5.201e-7, -7.199e-5
-0.190, -5.621e-7, -7.204e-5
-0.180, -3.444e-7, -7.208e-5
-0.170, -2.594e-7, -7.210e-5
-0.160, -1.057e-8, -7.210e-5
-0.150, -1.964e-7, -7.212e-5
-0.140, 1.201e-7, -7.211e-5
-0.130, 1.367e-7, -7.210e-5
-0.120, 2.764e-7, -7.207e-5
-0.110, 9.229e-8, -7.206e-5
-0.100, 5.240e-7, -7.201e-5
-0.090, 4.776e-7, -7.196e-5
-0.080, 7.104e-7, -7.189e-5
-0.070, 8.893e-7, -7.180e-5
-0.060, 6.071e-7, -7.174e-5
-0.050, 1.060e-6, -7.163e-5
-0.040, 8.187e-7, -7.155e-5
-0.030, 1.192e-6, -7.143e-5
-0.020, 7.176e-7, -7.136e-5
-0.010, 1.223e-6, -7.124e-5
-0.000, 8.743e-7, -7.115e-5
0.010, 1.026e-6, -7.105e-5
0.020, 1.046e-6, -7.095e-5
0.030, 9.709e-7, -7.085e-5
0.040, 1.048e-6, -7.074e-5
0.050, 1.145e-6, -7.063e-5
0.060, 1.111e-6, -7.052e-5
0.070, 8.626e-7, -7.043e-5
0.080, 9.678e-7, -7.033e-5
0.090, 7.988e-7, -7.025e-5
0.100, 7.841e-7, -7.018e-5
0.110, 7.328e-7, -7.010e-5
0.120, 7.396e-7, -7.003e-5
0.130, 4.993e-7, -6.998e-5
0.140, 4.802e-7, -6.993e-5
0.150, 3.693e-7, -6.989e-5
0.160, 2.053e-7, -6.987e-5
0.170, 1.004e-7, -6.986e-5
0.180, -1.906e-7, -6.988e-5
0.190, -4.517e-7, -6.993e-5
0.200, -6.521e-7, -6.999e-5
0.210, -6.424e-7, -7.006e-5
0.220, -3.765e-7, -7.010e-5
0.230, -6.364e-7, -7.016e-5
0.240, -9.444e-7, -7.025e-5
0.250, -1.157e-6, -7.037e-5
0.260, -1.370e-6, -7.051e-5
0.270, -1.361e-6, -7.064e-5
0.280, -1.465e-6, -7.079e-5
0.290, -1.765e-6, -7.096e-5
0.300, -1.709e-6, -7.114e-5
0.310, -1.968e-6, -7.133e-5
0.320, -2.299e-6, -7.156e-5
0.330, -2.587e-6, -7.182e-5
0.340, -2.968e-6, -7.212e-5
0.350, -3.277e-6, -7.245e-5
0.360, -3.782e-6, -7.282e-5
0.370, -4.548e-6, -7.328e-5
0.380, -5.206e-6, -7.380e-5
0.390, -6.042e-6, -7.440e-5
0.400, -6.935e-6, -7.510e-5
0.410, -8.183e-6, -7.592e-5
0.420, -9.263e-6, -7.684e-5
0.430, -1.003e-5, -7.784e-5
0.440, -1.074e-5, -7.892e-5
0.450, -1.135e-5, -8.005e-5
0.460, -1.178e-5, -8.123e-5
0.470, -1.191e-5, -8.242e-5
0.480, -1.216e-5, -8.364e-5
0.490, -1.213e-5, -8.485e-5
0.500, -1.171e-5, -8.602e-5
0.510, -1.143e-5, -8.717e-5
0.520, -1.051e-5, -8.822e-5
0.530, -1.020e-5, -8.924e-5
0.540, -9.481e-6, -9.018e-5
0.550, -8.755e-6, -9.106e-5
0.560, -8.062e-6, -9.187e-5
0.570, -7.447e-6, -9.261e-5
0.580, -6.962e-6, -9.331e-5
0.590, -6.423e-6, -9.395e-5
0.600, -5.991e-6, -9.455e-5
0.610, -5.604e-6, -9.511e-5
0.620, -5.216e-6, -9.563e-5
0.630, -4.953e-6, -9.613e-5
0.640, -4.472e-6, -9.657e-5
0.650, -4.474e-6, -9.702e-5
0.660, -4.218e-6, -9.744e-5
0.670, -3.991e-6, -9.784e-5
0.680, -3.820e-6, -9.822e-5
0.690, -3.617e-6, -9.859e-5
0.700, -3.547e-6, -9.894e-5
0.710, -3.409e-6, -9.928e-5
0.720, -3.432e-6, -9.962e-5
0.730, -3.287e-6, -9.995e-5
0.740, -3.197e-6, -1.003e-4
0.750, -3.139e-6, -1.006e-4
0.760, -3.049e-6, -1.009e-4
0.770, -3.161e-6, -1.012e-4
0.780, -3.135e-6, -1.015e-4
0.790, -3.045e-6, -1.018e-4
0.800, -3.141e-6, -1.021e-4
0.810, -3.159e-6, -1.025e-4
0.820, -3.182e-6, -1.028e-4
0.830, -3.235e-6, -1.031e-4
0.840, -3.323e-6, -1.034e-4
0.850, -3.357e-6, -1.038e-4
0.860, -3.453e-6, -1.041e-4
0.870, -3.635e-6, -1.045e-4
0.880, -3.736e-6, -1.048e-4
0.890, -3.902e-6, -1.052e-4
0.900, -4.001e-6, -1.056e-4
0.910, -4.154e-6, -1.061e-4
0.920, -4.368e-6, -1.065e-4
0.930, -4.545e-6, -1.069e-4
0.940, -4.683e-6, -1.074e-4
0.950, -4.933e-6, -1.079e-4
0.960, -5.050e-6, -1.084e-4
0.970, -5.306e-6, -1.089e-4
0.980, -5.476e-6, -1.095e-4
0.990, -5.660e-6, -1.101e-4
1.000, -5.798e-6, -1.106e-4
1.010, -6.005e-6, -1.112e-4
1.020, -6.080e-6, -1.118e-4
1.030, -6.251e-6, -1.125e-4
1.040, -6.390e-6, -1.131e-4
1.050, -6.518e-6, -1.138e-4
1.060, -6.619e-6, -1.144e-4
1.070, -6.634e-6, -1.151e-4
1.080, -6.783e-6, -1.158e-4
1.090, -6.705e-6, -1.164e-4
1.100, -7.012e-6, -1.171e-4
1.110, -6.881e-6, -1.178e-4
1.120, -6.935e-6, -1.185e-4
1.130, -7.116e-6, -1.192e-4
1.140, -7.183e-6, -1.199e-4
1.150, -7.222e-6, -1.207e-4
1.160, -7.252e-6, -1.214e-4
1.170, -7.069e-6, -1.221e-4
1.180, -7.337e-6, -1.228e-4
1.190, -7.393e-6, -1.236e-4
1.200, -7.550e-6, -1.243e-4
1.210, -7.559e-6, -1.251e-4
1.220, -7.785e-6, -1.259e-4
1.230, -7.872e-6, -1.267e-4
1.240, -8.072e-6, -1.275e-4
1.250, -7.302e-6, -1.282e-4

Segment 6:
1.240, -5.787e-6, -1.288e-4
1.230, -4.782e-6, -1.292e-4
1.220, -4.035e-6, -1.296e-4
1.210, -3.509e-6, -1.300e-4
1.200, -3.090e-6, -1.303e-4
1.190, -2.730e-6, -1.306e-4
1.180, -2.458e-6, -1.308e-4
1.170, -2.228e-6, -1.310e-4
1.160, -2.019e-6, -1.313e-4
1.150, -1.842e-6, -1.314e-4
1.140, -1.693e-6, -1.316e-4
1.130, -1.558e-6, -1.318e-4
1.120, -1.448e-6, -1.319e-4
1.110, -1.341e-6, -1.320e-4
1.100, -1.242e-6, -1.322e-4
1.090, -1.156e-6, -1.323e-4
1.080, -1.085e-6, -1.324e-4
1.070, -1.005e-6, -1.325e-4
1.060, -9.408e-7, -1.326e-4
1.050, -8.721e-7, -1.327e-4
1.040, -8.097e-7, -1.328e-4
1.030, -7.543e-7, -1.328e-4
1.020, -6.866e-7, -1.329e-4
1.010, -6.449e-7, -1.330e-4
1.000, -5.896e-7, -1.330e-4
0.990, -5.365e-7, -1.331e-4
0.980, -5.001e-7, -1.331e-4
0.970, -4.549e-7, -1.332e-4
0.960, -4.060e-7, -1.332e-4
0.950, -3.558e-7, -1.332e-4
0.940, -2.889e-7, -1.333e-4
0.930, -2.179e-7, -1.333e-4
0.920, -1.676e-7, -1.333e-4
0.910, -1.275e-7, -1.333e-4
0.900, -8.842e-8, -1.333e-4
0.890, -6.450e-8, -1.333e-4
0.880, -2.694e-8, -1.333e-4
0.870, 5.152e-9, -1.333e-4
0.860, 2.631e-8, -1.333e-4
0.850, 6.303e-8, -1.333e-4
0.840, 8.837e-8, -1.333e-4
0.830, 1.069e-7, -1.333e-4
0.820, 1.440e-7, -1.333e-4
0.810, 1.683e-7, -1.333e-4
0.800, 1.869e-7, -1.333e-4
0.790, 2.240e-7, -1.332e-4
0.780, 2.469e-7, -1.332e-4
0.770, 2.673e-7, -1.332e-4
0.760, 3.063e-7, -1.332e-4
0.750, 3.290e-7, -1.331e-4
0.740, 3.533e-7, -1.331e-4
0.730, 3.752e-7, -1.331e-4
0.720, 4.240e-7, -1.330e-4
0.710, 4.518e-7, -1.330e-4
0.700, 4.966e-7, -1.329e-4
0.690, 5.252e-7, -1.329e-4
0.680, 5.672e-7, -1.328e-4
0.670, 6.177e-7, -1.327e-4
0.660, 6.537e-7, -1.327e-4
0.650, 7.008e-7, -1.326e-4
0.640, 7.645e-7, -1.325e-4
0.630, 8.105e-7, -1.325e-4
0.620, 8.787e-7, -1.324e-4
0.610, 9.555e-7, -1.323e-4
0.600, 1.018e-6, -1.322e-4
0.590, 1.096e-6, -1.321e-4
0.580, 1.213e-6, -1.319e-4
0.570, 1.317e-6, -1.318e-4
0.560, 1.443e-6, -1.317e-4
0.550, 1.568e-6, -1.315e-4
0.540, 1.705e-6, -1.313e-4
0.530, 1.874e-6, -1.311e-4
0.520, 2.099e-6, -1.309e-4
0.510, 2.291e-6, -1.307e-4
0.500, 2.562e-6, -1.304e-4
0.490, 2.837e-6, -1.302e-4
0.480, 3.120e-6, -1.299e-4
0.470, 3.541e-6, -1.295e-4
0.460, 3.886e-6, -1.291e-4
0.450, 4.248e-6, -1.287e-4
0.440, 4.633e-6, -1.282e-4
0.430, 4.655e-6, -1.278e-4
0.420, 4.798e-6, -1.273e-4
0.410, 4.779e-6, -1.268e-4
0.400, 4.095e-6, -1.264e-4
0.390, 3.163e-6, -1.261e-4
0.380, 1.959e-6, -1.259e-4
0.370, 5.752e-7, -1.258e-4
0.360, -8.823e-7, -1.259e-4
0.350, -2.123e-6, -1.261e-4
0.340, -3.082e-6, -1.264e-4
0.330, -3.909e-6, -1.268e-4
0.320, -4.182e-6, -1.272e-4
0.310, -4.348e-6, -1.277e-4
0.300, -4.220e-6, -1.281e-4
0.290, -4.004e-6, -1.285e-4
0.280, -3.474e-6, -1.288e-4
0.270, -3.285e-6, -1.292e-4
0.260, -2.622e-6, -1.294e-4
0.250, -2.142e-6, -1.296e-4
0.240, -1.741e-6, -1.298e-4
0.230, -1.440e-6, -1.300e-4
0.220, -6.903e-7, -1.300e-4
0.210, -5.930e-7, -1.301e-4
0.200, -1.687e-7, -1.301e-4
0.190, 2.800e-7, -1.301e-4
0.180, 6.573e-7, -1.300e-4
0.170, 6.983e-7, -1.299e-4
0.160, 9.692e-7, -1.299e-4
0.150, 1.389e-6, -1.297e-4
0.140, 1.073e-6, -1.296e-4
0.130, 1.266e-6, -1.295e-4
0.120, 1.333e-6, -1.293e-4
0.110, 1.638e-6, -1.292e-4
0.100, 1.374e-6, -1.290e-4
0.090, 1.468e-6, -1.289e-4
0.080, 1.628e-6, -1.287e-4
0.070, 1.444e-6, -1.286e-4
0.060, 1.581e-6, -1.284e-4
0.050, 1.834e-6, -1.282e-4
0.040, 1.766e-6, -1.281e-4
0.030, 1.661e-6, -1.279e-4
0.020, 1.730e-6, -1.277e-4
0.010, 2.071e-6, -1.275e-4
0.000, 1.929e-6, -1.273e-4
-0.010, 1.866e-6, -1.271e-4
-0.020, 1.891e-6, -1.270e-4
-0.030, 2.086e-6, -1.267e-4
-0.040, 1.935e-6, -1.266e-4
-0.050, 2.263e-6, -1.263e-4
-0.060, 1.826e-6, -1.261e-4
-0.070, 2.153e-6, -1.259e-4
-0.080, 2.602e-6, -1.257e-4
-0.090, 2.553e-6, -1.254e-4
-0.100, 2.684e-6, -1.251e-4
-0.110, 3.246e-6, -1.248e-4
-0.120, 3.251e-6, -1.245e-4
-0.130, 3.397e-6, -1.242e-4
-0.140, 3.179e-6, -1.238e-4
-0.150, 3.401e-6, -1.235e-4
-0.160, 3.386e-6, -1.232e-4
-0.170, 3.844e-6, -1.228e-4
-0.180, 3.897e-6, -1.224e-4
-0.190, 3.818e-6, -1.220e-4
-0.200, 4.072e-6, -1.216e-4
-0.210, 4.076e-6, -1.212e-4
-0.220, 4.226e-6, -1.208e-4
-0.230, 4.112e-6, -1.204e-4
-0.240, 3.971e-6, -1.200e-4
-0.250, 3.837e-6, -1.196e-4
-0.260, 4.250e-6, -1.192e-4
-0.270, 4.369e-6, -1.187e-4
-0.280, 4.530e-6, -1.183e-4
-0.290, 5.277e-6, -1.177e-4
-0.300, 2.717e-6, -1.175e-4

Segment 7:
-0.290, 8.981e-7, -1.174e-4
-0.280, 5.781e-7, -1.173e-4
-0.270, 2.893e-7, -1.173e-4
-0.260, 1.816e-7, -1.173e-4
-0.250, -1.567e-7, -1.173e-4
-0.240, -5.968e-8, -1.173e-4
-0.230, -3.910e-8, -1.173e-4
-0.220, -6.489e-7, -1.174e-4
-0.210, -2.678e-7, -1.174e-4
-0.200, -3.437e-7, -1.174e-4
-0.190, -5.976e-7, -1.175e-4
-0.180, -6.013e-7, -1.175e-4
-0.170, -1.016e-7, -1.175e-4
-0.160, -1.755e-7, -1.176e-4
-0.150, -1.653e-7, -1.176e-4
-0.140, -2.087e-7, -1.176e-4
-0.130, -5.048e-8, -1.176e-4
-0.120, 6.945e-8, -1.176e-4
-0.110, 7.941e-8, -1.176e-4
-0.100, 2.827e-7, -1.176e-4
-0.090, 4.169e-7, -1.175e-4
-0.080, 2.805e-7, -1.175e-4
-0.070, 4.648e-7, -1.174e-4
-0.060, 5.763e-7, -1.174e-4
-0.050, 6.053e-7, -1.173e-4
-0.040, 9.635e-7, -1.172e-4
-0.030, 1.175e-6, -1.171e-4
-0.020, 9.940e-7, -1.170e-4
-0.010, 1.038e-6, -1.169e-4
-0.000, 1.095e-6, -1.168e-4
0.010, 6.531e-7, -1.167e-4
0.020, 1.107e-6, -1.166e-4
0.030, 9.270e-7, -1.165e-4
0.040, 9.693e-7, -1.164e-4
0.050, 1.083e-6, -1.163e-4
0.060, 1.008e-6, -1.162e-4
0.070, 1.046e-6, -1.161e-4
0.080, 7.845e-7, -1.160e-4
0.090, 8.153e-7, -1.160e-4
0.100, 6.263e-7, -1.159e-4
0.110, 3.381e-7, -1.159e-4
0.120, 7.980e-7, -1.158e-4
0.130, 3.717e-7, -1.158e-4
0.140, 5.033e-7, -1.157e-4
0.150, 3.495e-7, -1.157e-4
0.160, 4.464e-7, -1.156e-4
0.170, -1.228e-8, -1.156e-4
0.180, -1.314e-7, -1.156e-4
0.190, -2.052e-7, -1.157e-4
0.200, -4.413e-7, -1.157e-4
0.210, -6.138e-7, -1.158e-4
0.220, -4.739e-7, -1.158e-4
0.230, -5.365e-7, -1.159e-4
0.240, -7.163e-7, -1.159e-4
0.250, -9.769e-7, -1.160e-4
0.260, -1.071e-6, -1.161e-4
0.270, -1.313e-6, -1.163e-4
0.280, -1.532e-6, -1.164e-4
0.290, -1.755e-6, -1.166e-4
0.300, -1.811e-6, -1.168e-4
0.310, -2.079e-6, -1.170e-4
0.320, -2.248e-6, -1.172e-4
0.330, -2.618e-6, -1.175e-4
0.340, -2.798e-6, -1.178e-4
0.350, -3.468e-6, -1.181e-4
0.360, -3.823e-6, -1.185e-4
0.370, -4.415e-6, -1.189e-4
0.380, -5.208e-6, -1.194e-4
0.390, -6.060e-6, -1.201e-4
0.400, -7.141e-6, -1.208e-4
0.410, -8.165e-6, -1.216e-4
0.420, -9.129e-6, -1.225e-4
0.430, -1.016e-5, -1.235e-4
0.440, -1.100e-5, -1.246e-4
0.450, -1.161e-5, -1.258e-4
0.460, -1.195e-5, -1.270e-4
0.470, -1.225e-5, -1.282e-4
0.480, -1.254e-5, -1.294e-4
0.490, -1.235e-5, -1.307e-4
0.500, -1.204e-5, -1.319e-4
0.510, -1.163e-5, -1.330e-4
0.520, -1.111e-5, -1.342e-4
0.530, -1.024e-5, -1.352e-4
0.540, -9.415e-6, -1.361e-4
0.550, -8.842e-6, -1.370e-4
0.560, -8.159e-6, -1.378e-4
0.570, -7.463e-6, -1.386e-4
0.580, -6.995e-6, -1.393e-4
0.590, -6.572e-6, -1.399e-4
0.600, -6.053e-6, -1.405e-4
0.610, -5.640e-6, -1.411e-4
0.620, -5.273e-6, -1.416e-4
0.630, -5.071e-6, -1.421e-4
0.640, -4.703e-6, -1.426e-4
0.650, -4.453e-6, -1.430e-4
0.660, -4.189e-6, -1.435e-4
0.670, -3.953e-6, -1.439e-4
0.680, -3.752e-6, -1.442e-4
0.690, -3.701e-6, -1.446e-4
0.700, -3.484e-6, -1.450e-4
0.710, -3.525e-6, -1.453e-4
0.720, -3.361e-6, -1.456e-4
0.730, -3.218e-6, -1.460e-4
0.740, -3.166e-6, -1.463e-4
0.750, -3.154e-6, -1.466e-4
0.760, -3.134e-6, -1.469e-4
0.770, -3.015e-6, -1.472e-4
0.780, -3.050e-6, -1.475e-4
0.790, -3.110e-6, -1.478e-4
0.800, -3.125e-6, -1.481e-4
0.810, -3.040e-6, -1.484e-4
0.820, -3.165e-6, -1.488e-4
0.830, -3.230e-6, -1.491e-4
0.840, -3.285e-6, -1.494e-4
0.850, -3.378e-6, -1.498e-4
0.860, -3.602e-6, -1.501e-4
0.870, -3.606e-6, -1.505e-4
0.880, -3.767e-6, -1.508e-4
0.890, -3.889e-6, -1.512e-4
0.900, -3.952e-6, -1.516e-4
0.910, -4.173e-6, -1.520e-4
0.920, -4.366e-6, -1.525e-4
0.930, -4.573e-6, -1.529e-4
0.940, -4.766e-6, -1.534e-4
0.950, -4.940e-6, -1.539e-4
0.960, -5.052e-6, -1.544e-4
0.970, -5.369e-6, -1.550e-4
0.980, -5.549e-6, -1.555e-4
0.990, -5.694e-6, -1.561e-4
1.000, -5.867e-6, -1.567e-4
1.010, -6.018e-6, -1.573e-4
1.020, -6.212e-6, -1.579e-4
1.030, -6.386e-6, -1.585e-4
1.040, -6.511e-6, -1.592e-4
1.050, -6.575e-6, -1.598e-4
1.060, -6.700e-6, -1.605e-4
1.070, -6.812e-6, -1.612e-4
1.080, -6.933e-6, -1.619e-4
1.090, -6.889e-6, -1.626e-4
1.100, -7.028e-6, -1.633e-4
1.110, -6.955e-6, -1.640e-4
1.120, -7.194e-6, -1.647e-4
1.130, -7.219e-6, -1.654e-4
1.140, -7.303e-6, -1.661e-4
1.150, -7.362e-6, -1.669e-4
1.160, -7.298e-6, -1.676e-4
1.170, -7.406e-6, -1.683e-4
1.180, -7.419e-6, -1.691e-4
1.190, -7.603e-6, -1.698e-4
1.200, -7.425e-6, -1.706e-4
1.210, -7.827e-6, -1.714e-4
1.220, -7.933e-6, -1.722e-4
1.230, -7.870e-6, -1.730e-4
1.240, -8.281e-6, -1.738e-4
1.250, -7.464e-6, -1.745e-4

Segment 8:
1.240, -5.936e-6, -1.751e-4
1.230, -4.893e-6, -1.756e-4
1.220, -4.138e-6, -1.760e-4
1.210, -3.583e-6, -1.764e-4
1.200, -3.150e-6, -1.767e-4
1.190, -2.797e-6, -1.770e-4
1.180, -2.525e-6, -1.772e-4
1.170, -2.267e-6, -1.775e-4
1.160, -2.095e-6, -1.777e-4
1.150, -1.895e-6, -1.779e-4
1.140, -1.736e-6, -1.780e-4
1.130, -1.611e-6, -1.782e-4
1.120, -1.483e-6, -1.783e-4
1.110, -1.373e-6, -1.785e-4
1.100, -1.281e-6, -1.786e-4
1.090, -1.194e-6, -1.787e-4
1.080, -1.108e-6, -1.788e-4
1.070, -1.040e-6, -1.789e-4
1.060, -9.555e-7, -1.790e-4
1.050, -8.969e-7, -1.791e-4
1.040, -8.315e-7, -1.792e-4
1.030, -7.588e-7, -1.793e-4
1.020, -7.161e-7, -1.794e-4
1.010, -6.595e-7, -1.794e-4
1.000, -6.026e-7, -1.795e-4
0.990, -5.613e-7, -1.795e-4
0.980, -5.084e-7, -1.796e-4
0.970, -4.588e-7, -1.796e-4
0.960, -4.202e-7, -1.797e-4
0.950, -3.815e-7, -1.797e-4
0.940, -2.849e-7, -1.797e-4
0.930, -2.424e-7, -1.798e-4
0.920, -1.650e-7, -1.798e-4
0.910, -1.262e-7, -1.798e-4
0.900, -1.061e-7, -1.798e-4
0.890, -6.020e-8, -1.798e-4
0.880, -2.733e-8, -1.798e-4
0.870, -6.101e-9, -1.798e-4
0.860, 3.437e-8, -1.798e-4
0.850, 5.719e-8, -1.798e-4
0.840, 7.832e-8, -1.798e-4
0.830, 1.210e-7, -1.798e-4
0.820, 1.347e-7, -1.798e-4
0.810, 1.624e-7, -1.798e-4
0.800, 2.004e-7, -1.797e-4
0.790, 2.180e-7, -1.797e-4
0.780, 2.460e-7, -1.797e-4
0.770, 2.812e-7, -1.797e-4
0.760, 2.994e-7, -1.796e-4
0.750, 3.318e-7, -1.796e-4
0.740, 3.701e-7, -1.796e-4
0.730, 3.894e-7, -1.795e-4
0.720, 4.187e-7, -1.795e-4
0.710, 4.674e-7, -1.794e-4
0.700, 4.869e-7, -1.794e-4
0.690, 5.317e-7, -1.793e-4
0.680, 5.720e-7, -1.793e-4
0.670, 6.094e-7, -1.792e-4
0.660, 6.624e-7, -1.791e-4
0.650, 7.104e-7, -1.791e-4
0.640, 7.568e-7, -1.790e-4
0.630, 8.279e-7, -1.789e-4
0.620, 8.830e-7, -1.788e-4
0.610, 9.479e-7, -1.787e-4
0.600, 1.034e-6, -1.786e-4
0.590, 1.118e-6, -1.785e-4
0.580, 1.212e-6, -1.784e-4
0.570, 1.339e-6, -1.783e-4
0.560, 1.415e-6, -1.781e-4
0.550, 1.589e-6, -1.780e-4
0.540, 1.689e-6, -1.778e-4
0.530, 1.914e-6, -1.776e-4
0.520, 2.088e-6, -1.774e-4
0.510, 2.287e-6, -1.772e-4
0.500, 2.615e-6, -1.769e-4
0.490, 2.898e-6, -1.766e-4
0.480, 3.233e-6, -1.763e-4
0.470, 3.553e-6, -1.759e-4
0.460, 3.958e-6, -1.755e-4
0.450, 4.374e-6, -1.751e-4
0.440, 4.656e-6, -1.746e-4
0.430, 4.804e-6, -1.742e-4
0.420, 4.954e-6, -1.737e-4
0.410, 4.599e-6, -1.732e-4
0.400, 3.969e-6, -1.728e-4
0.390, 2.780e-6, -1.725e-4
0.380, 1.671e-6, -1.724e-4
0.370, 1.655e-7, -1.723e-4
0.360, -1.363e-6, -1.725e-4
0.350, -2.729e-6, -1.728e-4
0.340, -3.791e-6, -1.731e-4
0.330, -4.470e-6, -1.736e-4
0.320, -4.793e-6, -1.741e-4
0.310, -4.980e-6, -1.746e-4
0.300, -5.012e-6, -1.751e-4
0.290, -4.385e-6, -1.755e-4
0.280, -3.999e-6, -1.759e-4
0.270, -3.407e-6, -1.762e-4
0.260, -2.995e-6, -1.765e-4
0.250, -2.538e-6, -1.768e-4
0.240, -1.846e-6, -1.770e-4
0.230, -1.373e-6, -1.771e-4
0.220, -9.472e-7, -1.772e-4
0.210, -3.463e-7, -1.772e-4
0.200, 1.367e-8, -1.772e-4
0.190, 2.029e-7, -1.772e-4
0.180, 4.567e-7, -1.772e-4
0.170, 7.838e-7, -1.771e-4
0.160, 9.730e-7, -1.770e-4
0.150, 1.060e-6, -1.769e-4
0.140, 1.195e-6, -1.768e-4
0.130, 1.153e-6, -1.767e-4
0.120, 1.279e-6, -1.765e-4
0.110, 1.420e-6, -1.764e-4
0.100, 1.355e-6, -1.763e-4
0.090, 1.468e-6, -1.761e-4
0.080, 1.172e-6, -1.760e-4
0.070, 1.564e-6, -1.758e-4
0.060, 1.589e-6, -1.757e-4
0.050, 1.582e-6, -1.755e-4
0.040, 1.760e-6, -1.753e-4
0.030, 1.397e-6, -1.752e-4
0.020, 1.642e-6, -1.750e-4
0.010, 1.715e-6, -1.749e-4
0.000, 1.874e-6, -1.747e-4
-0.010, 1.967e-6, -1.745e-4
-0.020, 2.003e-6, -1.743e-4
-0.030, 2.025e-6, -1.741e-4
-0.040, 1.909e-6, -1.739e-4
-0.050, 2.266e-6, -1.737e-4
-0.060, 2.542e-6, -1.734e-4
-0.070, 2.342e-6, -1.732e-4
-0.080, 2.594e-6, -1.729e-4
-0.090, 2.700e-6, -1.726e-4
-0.100, 2.961e-6, -1.723e-4
-0.110, 2.534e-6, -1.721e-4
-0.120, 2.872e-6, -1.718e-4
-0.130, 3.132e-6, -1.715e-4
-0.140, 3.316e-6, -1.712e-4
-0.150, 3.491e-6, -1.708e-4
-0.160, 3.565e-6, -1.705e-4
-0.170, 3.576e-6, -1.701e-4
-0.180, 3.621e-6, -1.697e-4
-0.190, 3.326e-6, -1.694e-4
-0.200, 3.851e-6, -1.690e-4
-0.210, 4.165e-6, -1.686e-4
-0.220, 4.070e-6, -1.682e-4
-0.230, 4.215e-6, -1.678e-4
-0.240, 3.907e-6, -1.674e-4
-0.250, 3.869e-6, -1.670e-4
-0.260, 4.186e-6, -1.666e-4
-0.270, 4.321e-6, -1.661e-4
-0.280, 4.046e-6, -1.657e-4
-0.290, 4.613e-6, -1.653e-4
-0.300, 2.318e-6, -1.650e-4
