Nov. 2, 2023   13:10:47
Linear Sweep Voltammetry
File: c:\users\dell\desktop\电化学数据\114514\oxidelsv_str_air.txt
Data Source:  Experiment
Instrument Model:  CHI600B
Header: 
Note: 

Init E (V) = 1.25
Final E (V) = -0.3
Scan Rate (V/s) = 0.01
Sample Interval (V) = 0.001
Quiet Time (sec) = 2
Sensitivity (A/V) = 1e-5

Ep = 0.254V
ip = 2.020e-5A
Ah = 2.055e-4C

Ep = -0.120V
ip = 1.311e-5A
Ah = 1.247e-5C

Potential/V, Current/A, Charge/C

Segment 1:
1.249, -4.238e-6, -4.238e-7
1.248, -3.065e-6, -7.304e-7
1.247, -2.501e-6, -9.804e-7
1.246, -2.159e-6, -1.196e-6
1.245, -1.920e-6, -1.388e-6
1.244, -1.738e-6, -1.562e-6
1.243, -1.602e-6, -1.722e-6
1.242, -1.495e-6, -1.872e-6
1.241, -1.397e-6, -2.012e-6
1.240, -1.322e-6, -2.144e-6
1.239, -1.256e-6, -2.269e-6
1.238, -1.196e-6, -2.389e-6
1.237, -1.141e-6, -2.503e-6
1.236, -1.085e-6, -2.612e-6
1.235, -1.041e-6, -2.716e-6
1.234, -1.005e-6, -2.816e-6
1.233, -9.746e-7, -2.914e-6
1.232, -9.376e-7, -3.007e-6
1.231, -9.030e-7, -3.098e-6
1.230, -8.749e-7, -3.185e-6
1.229, -8.447e-7, -3.270e-6
1.228, -8.247e-7, -3.352e-6
1.227, -7.972e-7, -3.432e-6
1.226, -7.818e-7, -3.510e-6
1.225, -7.525e-7, -3.585e-6
1.224, -7.428e-7, -3.659e-6
1.223, -7.215e-7, -3.732e-6
1.222, -7.002e-7, -3.802e-6
1.221, -6.911e-7, -3.871e-6
1.220, -6.673e-7, -3.937e-6
1.219, -6.521e-7, -4.003e-6
1.218, -6.457e-7, -4.067e-6
1.217, -6.298e-7, -4.130e-6
1.216, -6.074e-7, -4.191e-6
1.215, -6.004e-7, -4.251e-6
1.214, -5.966e-7, -4.311e-6
1.213, -5.864e-7, -4.369e-6
1.212, -5.668e-7, -4.426e-6
1.211, -5.563e-7, -4.482e-6
1.210, -5.502e-7, -4.537e-6
1.209, -5.442e-7, -4.591e-6
1.208, -5.275e-7, -4.644e-6
1.207, -5.155e-7, -4.695e-6
1.206, -5.046e-7, -4.746e-6
1.205, -5.015e-7, -4.796e-6
1.204, -4.966e-7, -4.846e-6
1.203, -4.880e-7, -4.894e-6
1.202, -4.781e-7, -4.942e-6
1.201, -4.648e-7, -4.989e-6
1.200, -4.589e-7, -5.035e-6
1.199, -4.548e-7, -5.080e-6
1.198, -4.526e-7, -5.125e-6
1.197, -4.497e-7, -5.170e-6
1.196, -4.410e-7, -5.214e-6
1.195, -4.346e-7, -5.258e-6
1.194, -4.233e-7, -5.300e-6
1.193, -4.141e-7, -5.342e-6
1.192, -4.092e-7, -5.383e-6
1.191, -4.067e-7, -5.423e-6
1.190, -4.044e-7, -5.464e-6
1.189, -4.037e-7, -5.504e-6
1.188, -4.016e-7, -5.544e-6
1.187, -3.992e-7, -5.584e-6
1.186, -3.955e-7, -5.624e-6
1.185, -3.888e-7, -5.663e-6
1.184, -3.815e-7, -5.701e-6
1.183, -3.753e-7, -5.738e-6
1.182, -3.667e-7, -5.775e-6
1.181, -3.624e-7, -5.811e-6
1.180, -3.594e-7, -5.847e-6
1.179, -3.577e-7, -5.883e-6
1.178, -3.555e-7, -5.918e-6
1.177, -3.542e-7, -5.954e-6
1.176, -3.514e-7, -5.989e-6
1.175, -3.482e-7, -6.024e-6
1.174, -3.415e-7, -6.058e-6
1.173, -3.312e-7, -6.091e-6
1.172, -3.161e-7, -6.123e-6
1.171, -3.072e-7, -6.153e-6
1.170, -2.876e-7, -6.182e-6
1.169, -2.739e-7, -6.210e-6
1.168, -2.584e-7, -6.235e-6
1.167, -2.475e-7, -6.260e-6
1.166, -2.311e-7, -6.283e-6
1.165, -2.231e-7, -6.306e-6
1.164, -2.177e-7, -6.327e-6
1.163, -2.141e-7, -6.349e-6
1.162, -2.101e-7, -6.370e-6
1.161, -2.092e-7, -6.391e-6
1.160, -2.077e-7, -6.411e-6
1.159, -2.063e-7, -6.432e-6
1.158, -2.038e-7, -6.452e-6
1.157, -2.028e-7, -6.473e-6
1.156, -2.015e-7, -6.493e-6
1.155, -1.996e-7, -6.513e-6
1.154, -1.951e-7, -6.532e-6
1.153, -1.926e-7, -6.552e-6
1.152, -1.904e-7, -6.571e-6
1.151, -1.877e-7, -6.589e-6
1.150, -1.835e-7, -6.608e-6
1.149, -1.806e-7, -6.626e-6
1.148, -1.787e-7, -6.644e-6
1.147, -1.762e-7, -6.661e-6
1.146, -1.723e-7, -6.679e-6
1.145, -1.704e-7, -6.696e-6
1.144, -1.693e-7, -6.712e-6
1.143, -1.667e-7, -6.729e-6
1.142, -1.653e-7, -6.746e-6
1.141, -1.641e-7, -6.762e-6
1.140, -1.632e-7, -6.778e-6
1.139, -1.618e-7, -6.795e-6
1.138, -1.612e-7, -6.811e-6
1.137, -1.607e-7, -6.827e-6
1.136, -1.604e-7, -6.843e-6
1.135, -1.600e-7, -6.859e-6
1.134, -1.594e-7, -6.875e-6
1.133, -1.591e-7, -6.891e-6
1.132, -1.590e-7, -6.907e-6
1.131, -1.585e-7, -6.922e-6
1.130, -1.571e-7, -6.938e-6
1.129, -1.563e-7, -6.954e-6
1.128, -1.553e-7, -6.969e-6
1.127, -1.542e-7, -6.985e-6
1.126, -1.518e-7, -7.000e-6
1.125, -1.514e-7, -7.015e-6
1.124, -1.500e-7, -7.030e-6
1.123, -1.476e-7, -7.045e-6
1.122, -1.453e-7, -7.059e-6
1.121, -1.443e-7, -7.074e-6
1.120, -1.422e-7, -7.088e-6
1.119, -1.387e-7, -7.102e-6
1.118, -1.370e-7, -7.116e-6
1.117, -1.374e-7, -7.129e-6
1.116, -1.346e-7, -7.143e-6
1.115, -1.326e-7, -7.156e-6
1.114, -1.301e-7, -7.169e-6
1.113, -1.293e-7, -7.182e-6
1.112, -1.265e-7, -7.195e-6
1.111, -1.243e-7, -7.207e-6
1.110, -1.227e-7, -7.219e-6
1.109, -1.219e-7, -7.231e-6
1.108, -1.197e-7, -7.243e-6
1.107, -1.183e-7, -7.255e-6
1.106, -1.174e-7, -7.267e-6
1.105, -1.172e-7, -7.279e-6
1.104, -1.154e-7, -7.290e-6
1.103, -1.146e-7, -7.302e-6
1.102, -1.146e-7, -7.313e-6
1.101, -1.147e-7, -7.325e-6
1.100, -1.139e-7, -7.336e-6
1.099, -1.135e-7, -7.347e-6
1.098, -1.133e-7, -7.359e-6
1.097, -1.128e-7, -7.370e-6
1.096, -1.117e-7, -7.381e-6
1.095, -1.110e-7, -7.392e-6
1.094, -1.112e-7, -7.403e-6
1.093, -1.108e-7, -7.415e-6
1.092, -1.106e-7, -7.426e-6
1.091, -1.105e-7, -7.437e-6
1.090, -1.109e-7, -7.448e-6
1.089, -1.104e-7, -7.459e-6
1.088, -1.098e-7, -7.470e-6
1.087, -1.084e-7, -7.481e-6
1.086, -1.087e-7, -7.491e-6
1.085, -1.080e-7, -7.502e-6
1.084, -1.078e-7, -7.513e-6
1.083, -1.059e-7, -7.524e-6
1.082, -1.064e-7, -7.534e-6
1.081, -1.059e-7, -7.545e-6
1.080, -1.055e-7, -7.555e-6
1.079, -1.025e-7, -7.566e-6
1.078, -1.033e-7, -7.576e-6
1.077, -1.027e-7, -7.586e-6
1.076, -1.022e-7, -7.596e-6
1.075, -9.911e-8, -7.606e-6
1.074, -1.007e-7, -7.616e-6
1.073, -9.966e-8, -7.626e-6
1.072, -9.926e-8, -7.636e-6
1.071, -9.570e-8, -7.646e-6
1.070, -9.663e-8, -7.656e-6
1.069, -9.360e-8, -7.665e-6
1.068, -9.375e-8, -7.674e-6
1.067, -9.352e-8, -7.684e-6
1.066, -9.544e-8, -7.693e-6
1.065, -9.128e-8, -7.702e-6
1.064, -9.040e-8, -7.711e-6
1.063, -8.817e-8, -7.720e-6
1.062, -8.913e-8, -7.729e-6
1.061, -8.512e-8, -7.738e-6
1.060, -8.495e-8, -7.746e-6
1.059, -8.312e-8, -7.754e-6
1.058, -8.414e-8, -7.763e-6
1.057, -8.014e-8, -7.771e-6
1.056, -8.011e-8, -7.779e-6
1.055, -7.830e-8, -7.787e-6
1.054, -8.014e-8, -7.795e-6
1.053, -7.639e-8, -7.802e-6
1.052, -7.674e-8, -7.810e-6
1.051, -7.598e-8, -7.818e-6
1.050, -7.803e-8, -7.825e-6
1.049, -7.437e-8, -7.833e-6
1.048, -7.385e-8, -7.840e-6
1.047, -7.265e-8, -7.848e-6
1.046, -7.433e-8, -7.855e-6
1.045, -7.149e-8, -7.862e-6
1.044, -7.079e-8, -7.869e-6
1.043, -6.933e-8, -7.876e-6
1.042, -7.016e-8, -7.883e-6
1.041, -6.877e-8, -7.890e-6
1.040, -6.876e-8, -7.897e-6
1.039, -6.793e-8, -7.904e-6
1.038, -6.832e-8, -7.911e-6
1.037, -6.670e-8, -7.917e-6
1.036, -6.681e-8, -7.924e-6
1.035, -6.635e-8, -7.930e-6
1.034, -6.652e-8, -7.937e-6
1.033, -6.544e-8, -7.944e-6
1.032, -6.535e-8, -7.950e-6
1.031, -6.441e-8, -7.957e-6
1.030, -6.471e-8, -7.963e-6
1.029, -6.445e-8, -7.970e-6
1.028, -6.425e-8, -7.976e-6
1.027, -6.339e-8, -7.982e-6
1.026, -6.354e-8, -7.989e-6
1.025, -6.331e-8, -7.995e-6
1.024, -6.309e-8, -8.001e-6
1.023, -6.266e-8, -8.008e-6
1.022, -6.279e-8, -8.014e-6
1.021, -6.254e-8, -8.020e-6
1.020, -6.252e-8, -8.026e-6
1.019, -6.235e-8, -8.033e-6
1.018, -6.238e-8, -8.039e-6
1.017, -6.220e-8, -8.045e-6
1.016, -6.237e-8, -8.051e-6
1.015, -6.209e-8, -8.058e-6
1.014, -6.196e-8, -8.064e-6
1.013, -6.151e-8, -8.070e-6
1.012, -6.140e-8, -8.076e-6
1.011, -6.099e-8, -8.082e-6
1.010, -6.052e-8, -8.088e-6
1.009, -6.041e-8, -8.094e-6
1.008, -6.040e-8, -8.100e-6
1.007, -5.999e-8, -8.106e-6
1.006, -5.937e-8, -8.112e-6
1.005, -5.950e-8, -8.118e-6
1.004, -5.937e-8, -8.124e-6
1.003, -5.922e-8, -8.130e-6
1.002, -5.794e-8, -8.136e-6
1.001, -5.814e-8, -8.142e-6
1.000, -5.795e-8, -8.147e-6
0.999, -5.756e-8, -8.153e-6
0.998, -5.650e-8, -8.159e-6
0.997, -5.717e-8, -8.165e-6
0.996, -5.694e-8, -8.170e-6
0.995, -5.613e-8, -8.176e-6
0.994, -5.409e-8, -8.181e-6
0.993, -5.432e-8, -8.187e-6
0.992, -5.395e-8, -8.192e-6
0.991, -5.334e-8, -8.197e-6
0.990, -5.233e-8, -8.203e-6
0.989, -5.288e-8, -8.208e-6
0.988, -5.197e-8, -8.213e-6
0.987, -5.088e-8, -8.218e-6
0.986, -4.852e-8, -8.223e-6
0.985, -4.920e-8, -8.228e-6
0.984, -4.897e-8, -8.233e-6
0.983, -4.720e-8, -8.238e-6
0.982, -4.602e-8, -8.242e-6
0.981, -4.702e-8, -8.247e-6
0.980, -4.626e-8, -8.252e-6
0.979, -4.451e-8, -8.256e-6
0.978, -4.312e-8, -8.260e-6
0.977, -4.390e-8, -8.265e-6
0.976, -4.286e-8, -8.269e-6
0.975, -4.149e-8, -8.273e-6
0.974, -4.063e-8, -8.277e-6
0.973, -4.145e-8, -8.281e-6
0.972, -4.038e-8, -8.285e-6
0.971, -3.876e-8, -8.289e-6
0.970, -3.752e-8, -8.293e-6
0.969, -3.865e-8, -8.297e-6
0.968, -3.773e-8, -8.301e-6
0.967, -3.620e-8, -8.304e-6
0.966, -3.606e-8, -8.308e-6
0.965, -3.647e-8, -8.311e-6
0.964, -3.392e-8, -8.315e-6
0.963, -3.223e-8, -8.318e-6
0.962, -3.166e-8, -8.321e-6
0.961, -3.210e-8, -8.324e-6
0.960, -2.964e-8, -8.327e-6
0.959, -2.894e-8, -8.330e-6
0.958, -2.874e-8, -8.333e-6
0.957, -2.921e-8, -8.336e-6
0.956, -2.724e-8, -8.339e-6
0.955, -2.657e-8, -8.342e-6
0.954, -2.641e-8, -8.344e-6
0.953, -2.666e-8, -8.347e-6
0.952, -2.493e-8, -8.349e-6
0.951, -2.468e-8, -8.352e-6
0.950, -2.434e-8, -8.354e-6
0.949, -2.472e-8, -8.357e-6
0.948, -2.262e-8, -8.359e-6
0.947, -2.324e-8, -8.361e-6
0.946, -2.257e-8, -8.364e-6
0.945, -2.297e-8, -8.366e-6
0.944, -2.126e-8, -8.368e-6
0.943, -2.075e-8, -8.370e-6
0.942, -2.058e-8, -8.372e-6
0.941, -2.069e-8, -8.374e-6
0.940, -1.932e-8, -8.376e-6
0.939, -1.931e-8, -8.378e-6
0.938, -1.893e-8, -8.380e-6
0.937, -1.854e-8, -8.382e-6
0.936, -1.770e-8, -8.384e-6
0.935, -1.721e-8, -8.385e-6
0.934, -1.722e-8, -8.387e-6
0.933, -1.693e-8, -8.389e-6
0.932, -1.634e-8, -8.390e-6
0.931, -1.628e-8, -8.392e-6
0.930, -1.681e-8, -8.394e-6
0.929, -1.663e-8, -8.395e-6
0.928, -1.607e-8, -8.397e-6
0.927, -1.613e-8, -8.399e-6
0.926, -1.586e-8, -8.400e-6
0.925, -1.529e-8, -8.402e-6
0.924, -1.470e-8, -8.403e-6
0.923, -1.490e-8, -8.405e-6
0.922, -1.464e-8, -8.406e-6
0.921, -1.421e-8, -8.407e-6
0.920, -1.397e-8, -8.409e-6
0.919, -1.407e-8, -8.410e-6
0.918, -1.391e-8, -8.412e-6
0.917, -1.359e-8, -8.413e-6
0.916, -1.302e-8, -8.414e-6
0.915, -1.333e-8, -8.416e-6
0.914, -1.314e-8, -8.417e-6
0.913, -1.298e-8, -8.418e-6
0.912, -1.232e-8, -8.419e-6
0.911, -1.268e-8, -8.421e-6
0.910, -1.251e-8, -8.422e-6
0.909, -1.212e-8, -8.423e-6
0.908, -1.138e-8, -8.424e-6
0.907, -1.162e-8, -8.426e-6
0.906, -1.134e-8, -8.427e-6
0.905, -1.134e-8, -8.428e-6
0.904, -1.056e-8, -8.429e-6
0.903, -1.075e-8, -8.430e-6
0.902, -1.049e-8, -8.431e-6
0.901, -1.035e-8, -8.432e-6
0.900, -9.469e-9, -8.433e-6
0.899, -1.009e-8, -8.434e-6
0.898, -9.819e-9, -8.435e-6
0.897, -9.014e-9, -8.436e-6
0.896, -8.399e-9, -8.437e-6
0.895, -8.479e-9, -8.438e-6
0.894, -8.492e-9, -8.438e-6
0.893, -7.950e-9, -8.439e-6
0.892, -6.709e-9, -8.440e-6
0.891, -7.184e-9, -8.441e-6
0.890, -6.557e-9, -8.441e-6
0.889, -6.266e-9, -8.442e-6
0.888, -5.296e-9, -8.442e-6
0.887, -5.514e-9, -8.443e-6
0.886, -4.648e-9, -8.443e-6
0.885, -4.503e-9, -8.444e-6
0.884, -3.744e-9, -8.444e-6
0.883, -3.935e-9, -8.445e-6
0.882, -2.489e-9, -8.445e-6
0.881, -2.080e-9, -8.445e-6
0.880, -1.637e-9, -8.445e-6
0.879, -1.822e-9, -8.445e-6
0.878, 9.968e-11, -8.445e-6
0.877, 5.025e-10, -8.445e-6
0.876, 6.808e-10, -8.445e-6
0.875, 4.827e-10, -8.445e-6
0.874, 2.801e-9, -8.445e-6
0.873, 2.840e-9, -8.445e-6
0.872, 2.708e-9, -8.444e-6
0.871, 3.263e-9, -8.444e-6
0.870, 5.297e-9, -8.444e-6
0.869, 4.808e-9, -8.443e-6
0.868, 5.330e-9, -8.443e-6
0.867, 5.231e-9, -8.442e-6
0.866, 7.674e-9, -8.441e-6
0.865, 6.869e-9, -8.441e-6
0.864, 7.265e-9, -8.440e-6
0.863, 7.463e-9, -8.439e-6
0.862, 9.755e-9, -8.438e-6
0.861, 8.665e-9, -8.437e-6
0.860, 9.596e-9, -8.436e-6
0.859, 9.365e-9, -8.435e-6
0.858, 1.255e-8, -8.434e-6
0.857, 1.174e-8, -8.433e-6
0.856, 1.215e-8, -8.432e-6
0.855, 1.219e-8, -8.430e-6
0.854, 1.441e-8, -8.429e-6
0.853, 1.396e-8, -8.428e-6
0.852, 1.419e-8, -8.426e-6
0.851, 1.428e-8, -8.425e-6
0.850, 1.702e-8, -8.423e-6
0.849, 1.690e-8, -8.421e-6
0.848, 1.652e-8, -8.420e-6
0.847, 1.696e-8, -8.418e-6
0.846, 1.913e-8, -8.416e-6
0.845, 1.874e-8, -8.414e-6
0.844, 1.857e-8, -8.412e-6
0.843, 1.930e-8, -8.410e-6
0.842, 2.132e-8, -8.408e-6
0.841, 2.117e-8, -8.406e-6
0.840, 2.099e-8, -8.404e-6
0.839, 2.229e-8, -8.402e-6
0.838, 2.354e-8, -8.400e-6
0.837, 2.302e-8, -8.397e-6
0.836, 2.341e-8, -8.395e-6
0.835, 2.405e-8, -8.393e-6
0.834, 2.529e-8, -8.390e-6
0.833, 2.500e-8, -8.387e-6
0.832, 2.578e-8, -8.385e-6
0.831, 2.646e-8, -8.382e-6
0.830, 2.698e-8, -8.380e-6
0.829, 2.652e-8, -8.377e-6
0.828, 2.661e-8, -8.374e-6
0.827, 2.702e-8, -8.372e-6
0.826, 2.741e-8, -8.369e-6
0.825, 2.688e-8, -8.366e-6
0.824, 2.856e-8, -8.363e-6
0.823, 2.954e-8, -8.360e-6
0.822, 2.953e-8, -8.357e-6
0.821, 2.912e-8, -8.354e-6
0.820, 2.970e-8, -8.351e-6
0.819, 2.933e-8, -8.349e-6
0.818, 3.018e-8, -8.346e-6
0.817, 3.005e-8, -8.343e-6
0.816, 3.138e-8, -8.339e-6
0.815, 3.174e-8, -8.336e-6
0.814, 3.188e-8, -8.333e-6
0.813, 3.121e-8, -8.330e-6
0.812, 3.194e-8, -8.327e-6
0.811, 3.214e-8, -8.323e-6
0.810, 3.239e-8, -8.320e-6
0.809, 3.223e-8, -8.317e-6
0.808, 3.295e-8, -8.314e-6
0.807, 3.317e-8, -8.310e-6
0.806, 3.336e-8, -8.307e-6
0.805, 3.308e-8, -8.304e-6
0.804, 3.378e-8, -8.300e-6
0.803, 3.402e-8, -8.297e-6
0.802, 3.404e-8, -8.294e-6
0.801, 3.371e-8, -8.290e-6
0.800, 3.422e-8, -8.287e-6
0.799, 3.447e-8, -8.283e-6
0.798, 3.442e-8, -8.280e-6
0.797, 3.418e-8, -8.276e-6
0.796, 3.462e-8, -8.273e-6
0.795, 3.466e-8, -8.270e-6
0.794, 3.474e-8, -8.266e-6
0.793, 3.449e-8, -8.263e-6
0.792, 3.490e-8, -8.259e-6
0.791, 3.519e-8, -8.256e-6
0.790, 3.511e-8, -8.252e-6
0.789, 3.507e-8, -8.249e-6
0.788, 3.533e-8, -8.245e-6
0.787, 3.554e-8, -8.242e-6
0.786, 3.560e-8, -8.238e-6
0.785, 3.563e-8, -8.234e-6
0.784, 3.578e-8, -8.231e-6
0.783, 3.602e-8, -8.227e-6
0.782, 3.614e-8, -8.224e-6
0.781, 3.608e-8, -8.220e-6
0.780, 3.635e-8, -8.216e-6
0.779, 3.655e-8, -8.213e-6
0.778, 3.668e-8, -8.209e-6
0.777, 3.668e-8, -8.205e-6
0.776, 3.702e-8, -8.202e-6
0.775, 3.737e-8, -8.198e-6
0.774, 3.747e-8, -8.194e-6
0.773, 3.755e-8, -8.190e-6
0.772, 3.809e-8, -8.187e-6
0.771, 3.824e-8, -8.183e-6
0.770, 3.831e-8, -8.179e-6
0.769, 3.848e-8, -8.175e-6
0.768, 3.937e-8, -8.171e-6
0.767, 3.975e-8, -8.167e-6
0.766, 3.976e-8, -8.163e-6
0.765, 3.997e-8, -8.159e-6
0.764, 4.110e-8, -8.155e-6
0.763, 4.129e-8, -8.151e-6
0.762, 4.150e-8, -8.147e-6
0.761, 4.154e-8, -8.143e-6
0.760, 4.269e-8, -8.138e-6
0.759, 4.288e-8, -8.134e-6
0.758, 4.267e-8, -8.130e-6
0.757, 4.338e-8, -8.126e-6
0.756, 4.491e-8, -8.121e-6
0.755, 4.512e-8, -8.117e-6
0.754, 4.521e-8, -8.112e-6
0.753, 4.560e-8, -8.107e-6
0.752, 4.744e-8, -8.103e-6
0.751, 4.752e-8, -8.098e-6
0.750, 4.738e-8, -8.093e-6
0.749, 4.804e-8, -8.088e-6
0.748, 5.038e-8, -8.083e-6
0.747, 4.979e-8, -8.078e-6
0.746, 5.021e-8, -8.073e-6
0.745, 5.119e-8, -8.068e-6
0.744, 5.326e-8, -8.063e-6
0.743, 5.302e-8, -8.058e-6
0.742, 5.240e-8, -8.052e-6
0.741, 5.393e-8, -8.047e-6
0.740, 5.598e-8, -8.041e-6
0.739, 5.518e-8, -8.036e-6
0.738, 5.563e-8, -8.030e-6
0.737, 5.642e-8, -8.025e-6
0.736, 5.877e-8, -8.019e-6
0.735, 5.856e-8, -8.013e-6
0.734, 5.869e-8, -8.007e-6
0.733, 6.078e-8, -8.001e-6
0.732, 6.226e-8, -7.995e-6
0.731, 6.157e-8, -7.989e-6
0.730, 6.196e-8, -7.982e-6
0.729, 6.405e-8, -7.976e-6
0.728, 6.478e-8, -7.970e-6
0.727, 6.439e-8, -7.963e-6
0.726, 6.451e-8, -7.957e-6
0.725, 6.649e-8, -7.950e-6
0.724, 6.811e-8, -7.943e-6
0.723, 6.723e-8, -7.936e-6
0.722, 6.802e-8, -7.930e-6
0.721, 6.982e-8, -7.923e-6
0.720, 7.075e-8, -7.916e-6
0.719, 7.050e-8, -7.909e-6
0.718, 7.147e-8, -7.901e-6
0.717, 7.317e-8, -7.894e-6
0.716, 7.372e-8, -7.887e-6
0.715, 7.258e-8, -7.879e-6
0.714, 7.411e-8, -7.872e-6
0.713, 7.580e-8, -7.864e-6
0.712, 7.568e-8, -7.857e-6
0.711, 7.554e-8, -7.849e-6
0.710, 7.696e-8, -7.842e-6
0.709, 7.786e-8, -7.834e-6
0.708, 7.808e-8, -7.826e-6
0.707, 7.764e-8, -7.818e-6
0.706, 7.926e-8, -7.810e-6
0.705, 7.983e-8, -7.802e-6
0.704, 8.023e-8, -7.794e-6
0.703, 7.983e-8, -7.786e-6
0.702, 8.110e-8, -7.778e-6
0.701, 8.179e-8, -7.770e-6
0.700, 8.191e-8, -7.762e-6
0.699, 8.160e-8, -7.754e-6
0.698, 8.255e-8, -7.745e-6
0.697, 8.349e-8, -7.737e-6
0.696, 8.316e-8, -7.729e-6
0.695, 8.302e-8, -7.721e-6
0.694, 8.384e-8, -7.712e-6
0.693, 8.482e-8, -7.704e-6
0.692, 8.442e-8, -7.695e-6
0.691, 8.404e-8, -7.687e-6
0.690, 8.493e-8, -7.678e-6
0.689, 8.650e-8, -7.670e-6
0.688, 8.563e-8, -7.661e-6
0.687, 8.596e-8, -7.652e-6
0.686, 8.641e-8, -7.644e-6
0.685, 8.800e-8, -7.635e-6
0.684, 8.703e-8, -7.626e-6
0.683, 8.734e-8, -7.618e-6
0.682, 8.783e-8, -7.609e-6
0.681, 8.991e-8, -7.600e-6
0.680, 8.874e-8, -7.591e-6
0.679, 8.931e-8, -7.582e-6
0.678, 8.953e-8, -7.573e-6
0.677, 9.244e-8, -7.564e-6
0.676, 9.164e-8, -7.555e-6
0.675, 9.160e-8, -7.546e-6
0.674, 9.185e-8, -7.536e-6
0.673, 9.484e-8, -7.527e-6
0.672, 9.380e-8, -7.517e-6
0.671, 9.375e-8, -7.508e-6
0.670, 9.430e-8, -7.499e-6
0.669, 9.805e-8, -7.489e-6
0.668, 9.673e-8, -7.479e-6
0.667, 9.653e-8, -7.470e-6
0.666, 9.772e-8, -7.460e-6
0.665, 1.014e-7, -7.450e-6
0.664, 9.944e-8, -7.440e-6
0.663, 1.008e-7, -7.430e-6
0.662, 1.023e-7, -7.419e-6
0.661, 1.046e-7, -7.409e-6
0.660, 1.031e-7, -7.399e-6
0.659, 1.056e-7, -7.388e-6
0.658, 1.067e-7, -7.377e-6
0.657, 1.082e-7, -7.367e-6
0.656, 1.069e-7, -7.356e-6
0.655, 1.105e-7, -7.345e-6
0.654, 1.105e-7, -7.334e-6
0.653, 1.120e-7, -7.323e-6
0.652, 1.113e-7, -7.311e-6
0.651, 1.144e-7, -7.300e-6
0.650, 1.145e-7, -7.289e-6
0.649, 1.156e-7, -7.277e-6
0.648, 1.145e-7, -7.266e-6
0.647, 1.182e-7, -7.254e-6
0.646, 1.182e-7, -7.242e-6
0.645, 1.198e-7, -7.230e-6
0.644, 1.181e-7, -7.218e-6
0.643, 1.211e-7, -7.206e-6
0.642, 1.220e-7, -7.194e-6
0.641, 1.231e-7, -7.181e-6
0.640, 1.210e-7, -7.169e-6
0.639, 1.240e-7, -7.157e-6
0.638, 1.252e-7, -7.144e-6
0.637, 1.262e-7, -7.132e-6
0.636, 1.250e-7, -7.119e-6
0.635, 1.270e-7, -7.107e-6
0.634, 1.279e-7, -7.094e-6
0.633, 1.285e-7, -7.081e-6
0.632, 1.281e-7, -7.068e-6
0.631, 1.295e-7, -7.055e-6
0.630, 1.301e-7, -7.042e-6
0.629, 1.308e-7, -7.029e-6
0.628, 1.310e-7, -7.016e-6
0.627, 1.317e-7, -7.003e-6
0.626, 1.320e-7, -6.990e-6
0.625, 1.326e-7, -6.976e-6
0.624, 1.329e-7, -6.963e-6
0.623, 1.333e-7, -6.950e-6
0.622, 1.337e-7, -6.936e-6
0.621, 1.345e-7, -6.923e-6
0.620, 1.347e-7, -6.910e-6
0.619, 1.354e-7, -6.896e-6
0.618, 1.363e-7, -6.882e-6
0.617, 1.369e-7, -6.869e-6
0.616, 1.373e-7, -6.855e-6
0.615, 1.389e-7, -6.841e-6
0.614, 1.400e-7, -6.827e-6
0.613, 1.405e-7, -6.813e-6
0.612, 1.416e-7, -6.799e-6
0.611, 1.434e-7, -6.784e-6
0.610, 1.441e-7, -6.770e-6
0.609, 1.447e-7, -6.756e-6
0.608, 1.472e-7, -6.741e-6
0.607, 1.492e-7, -6.726e-6
0.606, 1.496e-7, -6.711e-6
0.605, 1.504e-7, -6.696e-6
0.604, 1.537e-7, -6.681e-6
0.603, 1.549e-7, -6.665e-6
0.602, 1.554e-7, -6.650e-6
0.601, 1.565e-7, -6.634e-6
0.600, 1.599e-7, -6.618e-6
0.599, 1.610e-7, -6.602e-6
0.598, 1.618e-7, -6.586e-6
0.597, 1.624e-7, -6.569e-6
0.596, 1.661e-7, -6.553e-6
0.595, 1.672e-7, -6.536e-6
0.594, 1.677e-7, -6.519e-6
0.593, 1.690e-7, -6.502e-6
0.592, 1.716e-7, -6.485e-6
0.591, 1.733e-7, -6.468e-6
0.590, 1.734e-7, -6.451e-6
0.589, 1.741e-7, -6.433e-6
0.588, 1.764e-7, -6.416e-6
0.587, 1.771e-7, -6.398e-6
0.586, 1.780e-7, -6.380e-6
0.585, 1.793e-7, -6.362e-6
0.584, 1.801e-7, -6.344e-6
0.583, 1.808e-7, -6.326e-6
0.582, 1.815e-7, -6.308e-6
0.581, 1.823e-7, -6.290e-6
0.580, 1.836e-7, -6.271e-6
0.579, 1.839e-7, -6.253e-6
0.578, 1.848e-7, -6.234e-6
0.577, 1.857e-7, -6.216e-6
0.576, 1.882e-7, -6.197e-6
0.575, 1.885e-7, -6.178e-6
0.574, 1.894e-7, -6.159e-6
0.573, 1.911e-7, -6.140e-6
0.572, 1.944e-7, -6.121e-6
0.571, 1.949e-7, -6.101e-6
0.570, 1.968e-7, -6.081e-6
0.569, 1.997e-7, -6.061e-6
0.568, 2.028e-7, -6.041e-6
0.567, 2.035e-7, -6.021e-6
0.566, 2.052e-7, -6.000e-6
0.565, 2.094e-7, -5.979e-6
0.564, 2.112e-7, -5.958e-6
0.563, 2.125e-7, -5.937e-6
0.562, 2.151e-7, -5.916e-6
0.561, 2.184e-7, -5.894e-6
0.560, 2.200e-7, -5.872e-6
0.559, 2.209e-7, -5.850e-6
0.558, 2.234e-7, -5.827e-6
0.557, 2.255e-7, -5.805e-6
0.556, 2.268e-7, -5.782e-6
0.555, 2.274e-7, -5.759e-6
0.554, 2.290e-7, -5.736e-6
0.553, 2.298e-7, -5.713e-6
0.552, 2.305e-7, -5.690e-6
0.551, 2.314e-7, -5.667e-6
0.550, 2.322e-7, -5.644e-6
0.549, 2.339e-7, -5.621e-6
0.548, 2.356e-7, -5.597e-6
0.547, 2.368e-7, -5.573e-6
0.546, 2.387e-7, -5.549e-6
0.545, 2.428e-7, -5.525e-6
0.544, 2.450e-7, -5.501e-6
0.543, 2.471e-7, -5.476e-6
0.542, 2.505e-7, -5.451e-6
0.541, 2.551e-7, -5.425e-6
0.540, 2.573e-7, -5.400e-6
0.539, 2.589e-7, -5.374e-6
0.538, 2.641e-7, -5.347e-6
0.537, 2.663e-7, -5.321e-6
0.536, 2.692e-7, -5.294e-6
0.535, 2.716e-7, -5.267e-6
0.534, 2.754e-7, -5.239e-6
0.533, 2.775e-7, -5.211e-6
0.532, 2.788e-7, -5.183e-6
0.531, 2.804e-7, -5.155e-6
0.530, 2.822e-7, -5.127e-6
0.529, 2.862e-7, -5.099e-6
0.528, 2.876e-7, -5.070e-6
0.527, 2.895e-7, -5.041e-6
0.526, 2.925e-7, -5.012e-6
0.525, 3.005e-7, -4.982e-6
0.524, 3.010e-7, -4.952e-6
0.523, 3.074e-7, -4.921e-6
0.522, 3.120e-7, -4.890e-6
0.521, 3.149e-7, -4.858e-6
0.520, 3.172e-7, -4.826e-6
0.519, 3.234e-7, -4.794e-6
0.518, 3.251e-7, -4.762e-6
0.517, 3.274e-7, -4.729e-6
0.516, 3.286e-7, -4.696e-6
0.515, 3.315e-7, -4.663e-6
0.514, 3.371e-7, -4.629e-6
0.513, 3.408e-7, -4.595e-6
0.512, 3.464e-7, -4.560e-6
0.511, 3.526e-7, -4.525e-6
0.510, 3.593e-7, -4.489e-6
0.509, 3.636e-7, -4.453e-6
0.508, 3.694e-7, -4.416e-6
0.507, 3.742e-7, -4.378e-6
0.506, 3.773e-7, -4.341e-6
0.505, 3.802e-7, -4.303e-6
0.504, 3.842e-7, -4.264e-6
0.503, 3.902e-7, -4.225e-6
0.502, 3.990e-7, -4.185e-6
0.501, 4.048e-7, -4.145e-6
0.500, 4.129e-7, -4.104e-6
0.499, 4.213e-7, -4.061e-6
0.498, 4.247e-7, -4.019e-6
0.497, 4.273e-7, -3.976e-6
0.496, 4.312e-7, -3.933e-6
0.495, 4.392e-7, -3.889e-6
0.494, 4.498e-7, -3.844e-6
0.493, 4.572e-7, -3.798e-6
0.492, 4.684e-7, -3.752e-6
0.491, 4.743e-7, -3.704e-6
0.490, 4.802e-7, -3.656e-6
0.489, 4.883e-7, -3.607e-6
0.488, 4.974e-7, -3.558e-6
0.487, 5.114e-7, -3.506e-6
0.486, 5.179e-7, -3.455e-6
0.485, 5.241e-7, -3.402e-6
0.484, 5.303e-7, -3.349e-6
0.483, 5.461e-7, -3.295e-6
0.482, 5.581e-7, -3.239e-6
0.481, 5.684e-7, -3.182e-6
0.480, 5.766e-7, -3.124e-6
0.479, 5.926e-7, -3.065e-6
0.478, 6.061e-7, -3.004e-6
0.477, 6.179e-7, -2.943e-6
0.476, 6.235e-7, -2.880e-6
0.475, 6.399e-7, -2.816e-6
0.474, 6.563e-7, -2.751e-6
0.473, 6.708e-7, -2.684e-6
0.472, 6.838e-7, -2.615e-6
0.471, 7.066e-7, -2.545e-6
0.470, 7.189e-7, -2.473e-6
0.469, 7.350e-7, -2.399e-6
0.468, 7.615e-7, -2.323e-6
0.467, 7.747e-7, -2.246e-6
0.466, 7.963e-7, -2.166e-6
0.465, 8.141e-7, -2.085e-6
0.464, 8.297e-7, -2.002e-6
0.463, 8.597e-7, -1.916e-6
0.462, 8.813e-7, -1.827e-6
0.461, 9.077e-7, -1.737e-6
0.460, 9.242e-7, -1.644e-6
0.459, 9.564e-7, -1.549e-6
0.458, 9.822e-7, -1.450e-6
0.457, 1.008e-6, -1.350e-6
0.456, 1.033e-6, -1.246e-6
0.455, 1.068e-6, -1.139e-6
0.454, 1.093e-6, -1.030e-6
0.453, 1.125e-6, -9.176e-7
0.452, 1.164e-6, -8.012e-7
0.451, 1.209e-6, -6.803e-7
0.450, 1.245e-6, -5.558e-7
0.449, 1.290e-6, -4.268e-7
0.448, 1.322e-6, -2.946e-7
0.447, 1.371e-6, -1.575e-7
0.446, 1.408e-6, -1.675e-8
0.445, 1.450e-6, 1.282e-7
0.444, 1.503e-6, 2.785e-7
0.443, 1.551e-6, 4.337e-7
0.442, 1.593e-6, 5.930e-7
0.441, 1.646e-6, 7.576e-7
0.440, 1.703e-6, 9.279e-7
0.439, 1.762e-6, 1.104e-6
0.438, 1.820e-6, 1.286e-6
0.437, 1.881e-6, 1.474e-6
0.436, 1.946e-6, 1.669e-6
0.435, 2.007e-6, 1.869e-6
0.434, 2.070e-6, 2.076e-6
0.433, 2.135e-6, 2.290e-6
0.432, 2.207e-6, 2.511e-6
0.431, 2.291e-6, 2.740e-6
0.430, 2.365e-6, 2.976e-6
0.429, 2.443e-6, 3.221e-6
0.428, 2.531e-6, 3.474e-6
0.427, 2.605e-6, 3.734e-6
0.426, 2.700e-6, 4.004e-6
0.425, 2.792e-6, 4.283e-6
0.424, 2.887e-6, 4.572e-6
0.423, 2.984e-6, 4.870e-6
0.422, 3.087e-6, 5.179e-6
0.421, 3.187e-6, 5.498e-6
0.420, 3.289e-6, 5.827e-6
0.419, 3.400e-6, 6.167e-6
0.418, 3.518e-6, 6.519e-6
0.417, 3.636e-6, 6.882e-6
0.416, 3.746e-6, 7.257e-6
0.415, 3.864e-6, 7.643e-6
0.414, 3.997e-6, 8.043e-6
0.413, 4.140e-6, 8.457e-6
0.412, 4.277e-6, 8.885e-6
0.411, 4.428e-6, 9.327e-6
0.410, 4.556e-6, 9.783e-6
0.409, 4.683e-6, 1.025e-5
0.408, 4.807e-6, 1.073e-5
0.407, 4.941e-6, 1.123e-5
0.406, 5.095e-6, 1.174e-5
0.405, 5.250e-6, 1.226e-5
0.404, 5.405e-6, 1.280e-5
0.403, 5.541e-6, 1.336e-5
0.402, 5.655e-6, 1.392e-5
0.401, 5.811e-6, 1.450e-5
0.400, 5.984e-6, 1.510e-5
0.399, 6.119e-6, 1.571e-5
0.398, 6.285e-6, 1.634e-5
0.397, 6.480e-6, 1.699e-5
0.396, 6.608e-6, 1.765e-5
0.395, 6.760e-6, 1.833e-5
0.394, 6.982e-6, 1.902e-5
0.393, 7.093e-6, 1.973e-5
0.392, 7.216e-6, 2.045e-5
0.391, 7.377e-6, 2.119e-5
0.390, 7.577e-6, 2.195e-5
0.389, 7.770e-6, 2.273e-5
0.388, 7.934e-6, 2.352e-5
0.387, 8.462e-6, 2.437e-5
0.386, 8.876e-6, 2.525e-5
0.385, 8.901e-6, 2.614e-5
0.384, 8.913e-6, 2.704e-5
0.383, 8.895e-6, 2.792e-5
0.382, 8.927e-6, 2.882e-5
0.381, 8.993e-6, 2.972e-5
0.380, 9.167e-6, 3.063e-5
0.379, 9.545e-6, 3.159e-5
0.378, 9.710e-6, 3.256e-5
0.377, 9.619e-6, 3.352e-5
0.376, 9.608e-6, 3.448e-5
0.375, 9.681e-6, 3.545e-5
0.374, 9.662e-6, 3.642e-5
0.373, 9.798e-6, 3.740e-5
0.372, 1.002e-5, 3.840e-5
0.371, 1.040e-5, 3.944e-5
0.370, 1.077e-5, 4.051e-5
0.369, 1.099e-5, 4.161e-5
0.368, 1.125e-5, 4.274e-5
0.367, 1.172e-5, 4.391e-5
0.366, 1.240e-5, 4.515e-5
0.365, 1.418e-5, 4.657e-5
0.364, 1.384e-5, 4.795e-5
0.363, 1.292e-5, 4.924e-5
0.362, 1.231e-5, 5.047e-5
0.361, 1.212e-5, 5.169e-5
0.360, 1.226e-5, 5.291e-5
0.359, 1.206e-5, 5.412e-5
0.358, 1.198e-5, 5.532e-5
0.357, 1.217e-5, 5.653e-5
0.356, 1.200e-5, 5.773e-5
0.355, 1.181e-5, 5.891e-5
0.354, 1.219e-5, 6.013e-5
0.353, 1.285e-5, 6.142e-5
0.352, 1.373e-5, 6.279e-5
0.351, 1.344e-5, 6.413e-5
0.350, 1.273e-5, 6.541e-5
0.349, 1.229e-5, 6.664e-5
0.348, 1.208e-5, 6.784e-5
0.347, 1.266e-5, 6.911e-5
0.346, 1.359e-5, 7.047e-5
0.345, 1.451e-5, 7.192e-5
0.344, 1.511e-5, 7.343e-5
0.343, 1.494e-5, 7.493e-5
0.342, 1.404e-5, 7.633e-5
0.341, 1.372e-5, 7.770e-5
0.340, 1.349e-5, 7.905e-5
0.339, 1.358e-5, 8.041e-5
0.338, 1.461e-5, 8.187e-5
0.337, 1.485e-5, 8.335e-5
0.336, 1.505e-5, 8.486e-5
0.335, 1.470e-5, 8.633e-5
0.334, 1.409e-5, 8.774e-5
0.333, 1.406e-5, 8.914e-5
0.332, 1.355e-5, 9.050e-5
0.331, 1.367e-5, 9.187e-5
0.330, 1.493e-5, 9.336e-5
0.329, 1.758e-5, 9.512e-5
0.328, 1.717e-5, 9.683e-5
0.327, 1.644e-5, 9.848e-5
0.326, 1.523e-5, 1.000e-4
0.325, 1.525e-5, 1.015e-4
0.324, 1.614e-5, 1.031e-4
0.323, 1.542e-5, 1.047e-4
0.322, 1.487e-5, 1.062e-4
0.321, 1.450e-5, 1.076e-4
0.320, 1.419e-5, 1.090e-4
0.319, 1.488e-5, 1.105e-4
0.318, 1.617e-5, 1.121e-4
0.317, 1.816e-5, 1.140e-4
0.316, 1.892e-5, 1.159e-4
0.315, 1.822e-5, 1.177e-4
0.314, 1.631e-5, 1.193e-4
0.313, 1.538e-5, 1.208e-4
0.312, 1.571e-5, 1.224e-4
0.311, 1.648e-5, 1.241e-4
0.310, 1.626e-5, 1.257e-4
0.309, 1.611e-5, 1.273e-4
0.308, 1.989e-5, 1.293e-4
0.307, 2.037e-5, 1.313e-4
0.306, 1.799e-5, 1.331e-4
0.305, 1.800e-5, 1.349e-4
0.304, 1.691e-5, 1.366e-4
0.303, 1.694e-5, 1.383e-4
0.302, 1.742e-5, 1.400e-4
0.301, 1.744e-5, 1.418e-4
0.300, 1.713e-5, 1.435e-4
0.299, 1.590e-5, 1.451e-4
0.298, 1.467e-5, 1.466e-4
0.297, 1.365e-5, 1.479e-4
0.296, 1.320e-5, 1.492e-4
0.295, 1.296e-5, 1.505e-4
0.294, 1.317e-5, 1.519e-4
0.293, 1.380e-5, 1.532e-4
0.292, 1.567e-5, 1.548e-4
0.291, 1.521e-5, 1.563e-4
0.290, 1.536e-5, 1.579e-4
0.289, 1.550e-5, 1.594e-4
0.288, 1.537e-5, 1.609e-4
0.287, 1.579e-5, 1.625e-4
0.286, 1.613e-5, 1.641e-4
0.285, 1.552e-5, 1.657e-4
0.284, 1.551e-5, 1.672e-4
0.283, 1.550e-5, 1.688e-4
0.282, 1.601e-5, 1.704e-4
0.281, 1.576e-5, 1.720e-4
0.280, 1.458e-5, 1.734e-4
0.279, 1.396e-5, 1.748e-4
0.278, 1.388e-5, 1.762e-4
0.277, 1.384e-5, 1.776e-4
0.276, 1.401e-5, 1.790e-4
0.275, 1.564e-5, 1.806e-4
0.274, 1.813e-5, 1.824e-4
0.273, 1.871e-5, 1.842e-4
0.272, 1.724e-5, 1.860e-4
0.271, 1.678e-5, 1.876e-4
0.270, 1.652e-5, 1.893e-4
0.269, 1.546e-5, 1.908e-4
0.268, 1.457e-5, 1.923e-4
0.267, 1.393e-5, 1.937e-4
0.266, 1.397e-5, 1.951e-4
0.265, 1.499e-5, 1.966e-4
0.264, 1.681e-5, 1.983e-4
0.263, 1.691e-5, 2.000e-4
0.262, 1.686e-5, 2.017e-4
0.261, 1.622e-5, 2.033e-4
0.260, 1.593e-5, 2.049e-4
0.259, 1.485e-5, 2.064e-4
0.258, 1.393e-5, 2.077e-4
0.257, 1.459e-5, 2.092e-4
0.256, 1.484e-5, 2.107e-4
0.255, 1.827e-5, 2.125e-4
0.254, 2.096e-5, 2.146e-4
0.253, 1.827e-5, 2.164e-4
0.252, 1.633e-5, 2.181e-4
0.251, 1.563e-5, 2.196e-4
0.250, 1.499e-5, 2.211e-4
0.249, 1.484e-5, 2.226e-4
0.248, 1.528e-5, 2.241e-4
0.247, 1.543e-5, 2.257e-4
0.246, 1.460e-5, 2.272e-4
0.245, 1.464e-5, 2.286e-4
0.244, 1.613e-5, 2.302e-4
0.243, 1.653e-5, 2.319e-4
0.242, 1.608e-5, 2.335e-4
0.241, 1.519e-5, 2.350e-4
0.240, 1.430e-5, 2.364e-4
0.239, 1.423e-5, 2.379e-4
0.238, 1.379e-5, 2.392e-4
0.237, 1.343e-5, 2.406e-4
0.236, 1.310e-5, 2.419e-4
0.235, 1.317e-5, 2.432e-4
0.234, 1.343e-5, 2.446e-4
0.233, 1.433e-5, 2.460e-4
0.232, 1.510e-5, 2.475e-4
0.231, 1.474e-5, 2.490e-4
0.230, 1.668e-5, 2.506e-4
0.229, 1.822e-5, 2.525e-4
0.228, 1.652e-5, 2.541e-4
0.227, 1.534e-5, 2.556e-4
0.226, 1.446e-5, 2.571e-4
0.225, 1.429e-5, 2.585e-4
0.224, 1.457e-5, 2.600e-4
0.223, 1.533e-5, 2.615e-4
0.222, 1.481e-5, 2.630e-4
0.221, 1.481e-5, 2.645e-4
0.220, 1.587e-5, 2.661e-4
0.219, 1.766e-5, 2.678e-4
0.218, 1.703e-5, 2.695e-4
0.217, 1.533e-5, 2.711e-4
0.216, 1.419e-5, 2.725e-4
0.215, 1.515e-5, 2.740e-4
0.214, 1.719e-5, 2.757e-4
0.213, 1.566e-5, 2.773e-4
0.212, 1.525e-5, 2.788e-4
0.211, 1.568e-5, 2.804e-4
0.210, 1.483e-5, 2.819e-4
0.209, 1.572e-5, 2.834e-4
0.208, 1.616e-5, 2.850e-4
0.207, 1.491e-5, 2.865e-4
0.206, 1.457e-5, 2.880e-4
0.205, 1.449e-5, 2.894e-4
0.204, 1.633e-5, 2.911e-4
0.203, 1.567e-5, 2.926e-4
0.202, 1.599e-5, 2.942e-4
0.201, 1.854e-5, 2.961e-4
0.200, 1.676e-5, 2.978e-4
0.199, 1.564e-5, 2.993e-4
0.198, 1.535e-5, 3.009e-4
0.197, 1.592e-5, 3.025e-4
0.196, 2.312e-5, 3.048e-4
0.195, 2.458e-5, 3.072e-4
0.194, 2.378e-5, 3.096e-4
0.193, 1.990e-5, 3.116e-4
0.192, 1.792e-5, 3.134e-4
0.191, 1.782e-5, 3.152e-4
0.190, 1.814e-5, 3.170e-4
0.189, 1.669e-5, 3.187e-4
0.188, 1.638e-5, 3.203e-4
0.187, 1.520e-5, 3.218e-4
0.186, 1.493e-5, 3.233e-4
0.185, 1.479e-5, 3.248e-4
0.184, 1.415e-5, 3.262e-4
0.183, 1.404e-5, 3.276e-4
0.182, 1.570e-5, 3.292e-4
0.181, 1.652e-5, 3.308e-4
0.180, 1.561e-5, 3.324e-4
0.179, 1.549e-5, 3.339e-4
0.178, 1.601e-5, 3.355e-4
0.177, 1.777e-5, 3.373e-4
0.176, 1.815e-5, 3.391e-4
0.175, 1.766e-5, 3.409e-4
0.174, 1.720e-5, 3.426e-4
0.173, 1.833e-5, 3.444e-4
0.172, 1.702e-5, 3.462e-4
0.171, 1.558e-5, 3.477e-4
0.170, 1.460e-5, 3.492e-4
0.169, 1.477e-5, 3.506e-4
0.168, 1.643e-5, 3.523e-4
0.167, 1.649e-5, 3.539e-4
0.166, 1.679e-5, 3.556e-4
0.165, 1.861e-5, 3.575e-4
0.164, 1.919e-5, 3.594e-4
0.163, 1.785e-5, 3.612e-4
0.162, 1.666e-5, 3.628e-4
0.161, 1.662e-5, 3.645e-4
0.160, 1.703e-5, 3.662e-4
0.159, 1.805e-5, 3.680e-4
0.158, 1.765e-5, 3.698e-4
0.157, 1.631e-5, 3.714e-4
0.156, 1.497e-5, 3.729e-4
0.155, 1.506e-5, 3.744e-4
0.154, 1.577e-5, 3.760e-4
0.153, 1.475e-5, 3.775e-4
0.152, 1.471e-5, 3.789e-4
0.151, 1.676e-5, 3.806e-4
0.150, 2.186e-5, 3.828e-4
0.149, 2.395e-5, 3.852e-4
0.148, 2.199e-5, 3.874e-4
0.147, 2.198e-5, 3.896e-4
0.146, 2.350e-5, 3.919e-4
0.145, 2.142e-5, 3.941e-4
0.144, 1.891e-5, 3.960e-4
0.143, 1.590e-5, 3.976e-4
0.142, 1.550e-5, 3.991e-4
0.141, 1.647e-5, 4.008e-4
0.140, 1.623e-5, 4.024e-4
0.139, 1.749e-5, 4.041e-4
0.138, 1.669e-5, 4.058e-4
0.137, 1.587e-5, 4.074e-4
0.136, 1.442e-5, 4.088e-4
0.135, 1.406e-5, 4.102e-4
0.134, 1.414e-5, 4.117e-4
0.133, 1.466e-5, 4.131e-4
0.132, 1.413e-5, 4.145e-4
0.131, 1.471e-5, 4.160e-4
0.130, 1.474e-5, 4.175e-4
0.129, 1.525e-5, 4.190e-4
0.128, 1.660e-5, 4.207e-4
0.127, 1.893e-5, 4.226e-4
0.126, 2.126e-5, 4.247e-4
0.125, 2.083e-5, 4.268e-4
0.124, 1.939e-5, 4.287e-4
0.123, 1.872e-5, 4.306e-4
0.122, 1.752e-5, 4.323e-4
0.121, 1.755e-5, 4.341e-4
0.120, 1.841e-5, 4.359e-4
0.119, 1.952e-5, 4.379e-4
0.118, 1.983e-5, 4.399e-4
0.117, 1.983e-5, 4.418e-4
0.116, 1.944e-5, 4.438e-4
0.115, 1.794e-5, 4.456e-4
0.114, 1.971e-5, 4.476e-4
0.113, 2.255e-5, 4.498e-4
0.112, 1.861e-5, 4.517e-4
0.111, 1.612e-5, 4.533e-4
0.110, 1.556e-5, 4.548e-4
0.109, 1.449e-5, 4.563e-4
0.108, 1.459e-5, 4.577e-4
0.107, 1.603e-5, 4.593e-4
0.106, 1.677e-5, 4.610e-4
0.105, 1.515e-5, 4.625e-4
0.104, 1.445e-5, 4.640e-4
0.103, 1.483e-5, 4.655e-4
0.102, 1.430e-5, 4.669e-4
0.101, 1.451e-5, 4.683e-4
0.100, 1.515e-5, 4.699e-4
0.099, 1.627e-5, 4.715e-4
0.098, 1.771e-5, 4.733e-4
0.097, 1.648e-5, 4.749e-4
0.096, 1.505e-5, 4.764e-4
0.095, 1.485e-5, 4.779e-4
0.094, 1.405e-5, 4.793e-4
0.093, 1.459e-5, 4.808e-4
0.092, 1.457e-5, 4.822e-4
0.091, 1.390e-5, 4.836e-4
0.090, 1.359e-5, 4.850e-4
0.089, 1.351e-5, 4.863e-4
0.088, 1.583e-5, 4.879e-4
0.087, 1.679e-5, 4.896e-4
0.086, 1.683e-5, 4.913e-4
0.085, 1.702e-5, 4.930e-4
0.084, 1.680e-5, 4.946e-4
0.083, 1.537e-5, 4.962e-4
0.082, 1.588e-5, 4.978e-4
0.081, 1.511e-5, 4.993e-4
0.080, 1.764e-5, 5.010e-4
0.079, 1.908e-5, 5.030e-4
0.078, 1.995e-5, 5.049e-4
0.077, 1.899e-5, 5.068e-4
0.076, 1.701e-5, 5.085e-4
0.075, 1.609e-5, 5.102e-4
0.074, 1.673e-5, 5.118e-4
0.073, 1.783e-5, 5.136e-4
0.072, 1.779e-5, 5.154e-4
0.071, 1.603e-5, 5.170e-4
0.070, 1.505e-5, 5.185e-4
0.069, 1.487e-5, 5.200e-4
0.068, 1.480e-5, 5.215e-4
0.067, 1.640e-5, 5.231e-4
0.066, 1.658e-5, 5.248e-4
0.065, 1.729e-5, 5.265e-4
0.064, 1.825e-5, 5.283e-4
0.063, 1.827e-5, 5.301e-4
0.062, 1.868e-5, 5.320e-4
0.061, 1.701e-5, 5.337e-4
0.060, 1.503e-5, 5.352e-4
0.059, 1.629e-5, 5.368e-4
0.058, 1.678e-5, 5.385e-4
0.057, 1.530e-5, 5.401e-4
0.056, 1.484e-5, 5.415e-4
0.055, 1.510e-5, 5.430e-4
0.054, 1.637e-5, 5.447e-4
0.053, 1.713e-5, 5.464e-4
0.052, 1.785e-5, 5.482e-4
0.051, 1.722e-5, 5.499e-4
0.050, 1.636e-5, 5.515e-4
0.049, 1.591e-5, 5.531e-4
0.048, 1.644e-5, 5.548e-4
0.047, 1.613e-5, 5.564e-4
0.046, 1.478e-5, 5.579e-4
0.045, 1.444e-5, 5.593e-4
0.044, 1.552e-5, 5.609e-4
0.043, 1.601e-5, 5.625e-4
0.042, 1.737e-5, 5.642e-4
0.041, 1.914e-5, 5.661e-4
0.040, 1.916e-5, 5.680e-4
0.039, 1.782e-5, 5.698e-4
0.038, 1.656e-5, 5.715e-4
0.037, 1.555e-5, 5.730e-4
0.036, 1.429e-5, 5.745e-4
0.035, 1.387e-5, 5.758e-4
0.034, 1.549e-5, 5.774e-4
0.033, 1.705e-5, 5.791e-4
0.032, 1.735e-5, 5.808e-4
0.031, 1.634e-5, 5.825e-4
0.030, 1.486e-5, 5.839e-4
0.029, 1.423e-5, 5.854e-4
0.028, 1.356e-5, 5.867e-4
0.027, 1.395e-5, 5.881e-4
0.026, 1.575e-5, 5.897e-4
0.025, 1.569e-5, 5.913e-4
0.024, 1.621e-5, 5.929e-4
0.023, 1.864e-5, 5.948e-4
0.022, 1.966e-5, 5.967e-4
0.021, 1.973e-5, 5.987e-4
0.020, 1.776e-5, 6.005e-4
0.019, 1.617e-5, 6.021e-4
0.018, 1.554e-5, 6.036e-4
0.017, 1.726e-5, 6.054e-4
0.016, 1.966e-5, 6.073e-4
0.015, 1.948e-5, 6.093e-4
0.014, 1.805e-5, 6.111e-4
0.013, 1.798e-5, 6.129e-4
0.012, 1.644e-5, 6.145e-4
0.011, 1.555e-5, 6.161e-4
0.010, 1.538e-5, 6.176e-4
0.009, 1.506e-5, 6.191e-4
0.008, 1.482e-5, 6.206e-4
0.007, 1.654e-5, 6.223e-4
0.006, 1.526e-5, 6.238e-4
0.005, 1.468e-5, 6.253e-4
0.004, 1.474e-5, 6.267e-4
0.003, 1.542e-5, 6.283e-4
0.002, 1.498e-5, 6.298e-4
0.001, 1.499e-5, 6.313e-4
-0.000, 1.565e-5, 6.328e-4
-0.001, 1.571e-5, 6.344e-4
-0.002, 1.646e-5, 6.360e-4
-0.003, 2.036e-5, 6.381e-4
-0.004, 2.040e-5, 6.401e-4
-0.005, 2.013e-5, 6.421e-4
-0.006, 1.896e-5, 6.440e-4
-0.007, 1.676e-5, 6.457e-4
-0.008, 1.651e-5, 6.474e-4
-0.009, 1.679e-5, 6.490e-4
-0.010, 1.515e-5, 6.506e-4
-0.011, 1.444e-5, 6.520e-4
-0.012, 1.488e-5, 6.535e-4
-0.013, 1.573e-5, 6.551e-4
-0.014, 1.584e-5, 6.566e-4
-0.015, 1.868e-5, 6.585e-4
-0.016, 1.857e-5, 6.604e-4
-0.017, 1.737e-5, 6.621e-4
-0.018, 1.676e-5, 6.638e-4
-0.019, 1.653e-5, 6.654e-4
-0.020, 1.655e-5, 6.671e-4
-0.021, 1.558e-5, 6.686e-4
-0.022, 1.696e-5, 6.703e-4
-0.023, 1.921e-5, 6.723e-4
-0.024, 1.836e-5, 6.741e-4
-0.025, 1.789e-5, 6.759e-4
-0.026, 1.701e-5, 6.776e-4
-0.027, 1.504e-5, 6.791e-4
-0.028, 1.496e-5, 6.806e-4
-0.029, 1.569e-5, 6.822e-4
-0.030, 1.614e-5, 6.838e-4
-0.031, 1.593e-5, 6.854e-4
-0.032, 1.690e-5, 6.871e-4
-0.033, 1.893e-5, 6.889e-4
-0.034, 1.680e-5, 6.906e-4
-0.035, 1.559e-5, 6.922e-4
-0.036, 1.514e-5, 6.937e-4
-0.037, 1.484e-5, 6.952e-4
-0.038, 1.544e-5, 6.967e-4
-0.039, 1.608e-5, 6.983e-4
-0.040, 1.879e-5, 7.002e-4
-0.041, 1.900e-5, 7.021e-4
-0.042, 1.726e-5, 7.038e-4
-0.043, 1.880e-5, 7.057e-4
-0.044, 2.323e-5, 7.080e-4
-0.045, 2.274e-5, 7.103e-4
-0.046, 1.971e-5, 7.123e-4
-0.047, 1.749e-5, 7.140e-4
-0.048, 1.645e-5, 7.157e-4
-0.049, 1.559e-5, 7.172e-4
-0.050, 1.574e-5, 7.188e-4
-0.051, 1.678e-5, 7.205e-4
-0.052, 1.814e-5, 7.223e-4
-0.053, 2.039e-5, 7.243e-4
-0.054, 2.066e-5, 7.264e-4
-0.055, 2.181e-5, 7.286e-4
-0.056, 2.151e-5, 7.307e-4
-0.057, 1.969e-5, 7.327e-4
-0.058, 1.929e-5, 7.346e-4
-0.059, 1.979e-5, 7.366e-4
-0.060, 1.906e-5, 7.385e-4
-0.061, 1.738e-5, 7.403e-4
-0.062, 1.600e-5, 7.419e-4
-0.063, 1.598e-5, 7.435e-4
-0.064, 1.653e-5, 7.451e-4
-0.065, 1.967e-5, 7.471e-4
-0.066, 2.074e-5, 7.492e-4
-0.067, 1.915e-5, 7.511e-4
-0.068, 2.102e-5, 7.532e-4
-0.069, 2.191e-5, 7.554e-4
-0.070, 2.044e-5, 7.574e-4
-0.071, 1.782e-5, 7.592e-4
-0.072, 1.710e-5, 7.609e-4
-0.073, 1.611e-5, 7.625e-4
-0.074, 1.769e-5, 7.643e-4
-0.075, 1.839e-5, 7.661e-4
-0.076, 1.851e-5, 7.680e-4
-0.077, 1.806e-5, 7.698e-4
-0.078, 1.804e-5, 7.716e-4
-0.079, 1.659e-5, 7.732e-4
-0.080, 1.752e-5, 7.750e-4
-0.081, 1.843e-5, 7.768e-4
-0.082, 1.776e-5, 7.786e-4
-0.083, 1.604e-5, 7.802e-4
-0.084, 1.544e-5, 7.818e-4
-0.085, 1.629e-5, 7.834e-4
-0.086, 1.917e-5, 7.853e-4
-0.087, 1.917e-5, 7.872e-4
-0.088, 1.739e-5, 7.890e-4
-0.089, 1.778e-5, 7.907e-4
-0.090, 1.910e-5, 7.927e-4
-0.091, 1.812e-5, 7.945e-4
-0.092, 1.777e-5, 7.962e-4
-0.093, 1.789e-5, 7.980e-4
-0.094, 1.999e-5, 8.000e-4
-0.095, 1.873e-5, 8.019e-4
-0.096, 1.725e-5, 8.036e-4
-0.097, 1.857e-5, 8.055e-4
-0.098, 1.996e-5, 8.075e-4
-0.099, 1.851e-5, 8.093e-4
-0.100, 1.797e-5, 8.111e-4
-0.101, 1.819e-5, 8.129e-4
-0.102, 2.021e-5, 8.150e-4
-0.103, 2.277e-5, 8.172e-4
-0.104, 2.169e-5, 8.194e-4
-0.105, 2.038e-5, 8.215e-4
-0.106, 2.025e-5, 8.235e-4
-0.107, 1.870e-5, 8.253e-4
-0.108, 1.731e-5, 8.271e-4
-0.109, 1.906e-5, 8.290e-4
-0.110, 1.876e-5, 8.309e-4
-0.111, 1.770e-5, 8.326e-4
-0.112, 2.007e-5, 8.346e-4
-0.113, 2.490e-5, 8.371e-4
-0.114, 2.698e-5, 8.398e-4
-0.115, 2.445e-5, 8.423e-4
-0.116, 2.097e-5, 8.444e-4
-0.117, 1.835e-5, 8.462e-4
-0.118, 1.906e-5, 8.481e-4
-0.119, 2.795e-5, 8.509e-4
-0.120, 2.997e-5, 8.539e-4
-0.121, 2.707e-5, 8.566e-4
-0.122, 2.185e-5, 8.588e-4
-0.123, 1.953e-5, 8.607e-4
-0.124, 2.101e-5, 8.628e-4
-0.125, 2.622e-5, 8.655e-4
-0.126, 2.832e-5, 8.683e-4
-0.127, 2.636e-5, 8.709e-4
-0.128, 2.200e-5, 8.731e-4
-0.129, 2.022e-5, 8.752e-4
-0.130, 1.894e-5, 8.770e-4
-0.131, 2.361e-5, 8.794e-4
-0.132, 2.666e-5, 8.821e-4
-0.133, 2.979e-5, 8.851e-4
-0.134, 2.525e-5, 8.876e-4
-0.135, 2.208e-5, 8.898e-4
-0.136, 2.038e-5, 8.918e-4
-0.137, 2.052e-5, 8.939e-4
-0.138, 2.358e-5, 8.962e-4
-0.139, 2.263e-5, 8.985e-4
-0.140, 2.451e-5, 9.009e-4
-0.141, 2.556e-5, 9.035e-4
-0.142, 2.624e-5, 9.061e-4
-0.143, 2.531e-5, 9.087e-4
-0.144, 2.944e-5, 9.116e-4
-0.145, 2.794e-5, 9.144e-4
-0.146, 2.275e-5, 9.167e-4
-0.147, 2.001e-5, 9.187e-4
-0.148, 1.968e-5, 9.206e-4
-0.149, 1.954e-5, 9.226e-4
-0.150, 1.929e-5, 9.245e-4
-0.151, 1.918e-5, 9.264e-4
-0.152, 1.959e-5, 9.284e-4
-0.153, 1.855e-5, 9.303e-4
-0.154, 1.896e-5, 9.322e-4
-0.155, 1.859e-5, 9.340e-4
-0.156, 1.823e-5, 9.358e-4
-0.157, 1.734e-5, 9.376e-4
-0.158, 1.803e-5, 9.394e-4
-0.159, 2.145e-5, 9.415e-4
-0.160, 2.189e-5, 9.437e-4
-0.161, 1.878e-5, 9.456e-4
-0.162, 1.764e-5, 9.473e-4
-0.163, 1.692e-5, 9.490e-4
-0.164, 1.673e-5, 9.507e-4
-0.165, 1.749e-5, 9.525e-4
-0.166, 1.836e-5, 9.543e-4
-0.167, 1.839e-5, 9.561e-4
-0.168, 1.866e-5, 9.580e-4
-0.169, 1.858e-5, 9.599e-4
-0.170, 1.965e-5, 9.618e-4
-0.171, 2.115e-5, 9.639e-4
-0.172, 2.175e-5, 9.661e-4
-0.173, 2.052e-5, 9.682e-4
-0.174, 1.951e-5, 9.701e-4
-0.175, 2.129e-5, 9.722e-4
-0.176, 2.160e-5, 9.744e-4
-0.177, 1.978e-5, 9.764e-4
-0.178, 1.950e-5, 9.783e-4
-0.179, 2.068e-5, 9.804e-4
-0.180, 2.254e-5, 9.827e-4
-0.181, 2.154e-5, 9.848e-4
-0.182, 2.031e-5, 9.868e-4
-0.183, 1.917e-5, 9.888e-4
-0.184, 1.871e-5, 9.906e-4
-0.185, 1.887e-5, 9.925e-4
-0.186, 2.225e-5, 9.947e-4
-0.187, 2.159e-5, 9.969e-4
-0.188, 1.950e-5, 9.988e-4
-0.189, 1.902e-5, 1.001e-3
-0.190, 1.916e-5, 1.003e-3
-0.191, 2.328e-5, 1.005e-3
-0.192, 2.579e-5, 1.008e-3
-0.193, 2.308e-5, 1.010e-3
-0.194, 2.145e-5, 1.012e-3
-0.195, 1.987e-5, 1.014e-3
-0.196, 1.849e-5, 1.016e-3
-0.197, 1.802e-5, 1.018e-3
-0.198, 1.807e-5, 1.019e-3
-0.199, 1.811e-5, 1.021e-3
-0.200, 2.576e-5, 1.024e-3
-0.201, 2.868e-5, 1.027e-3
-0.202, 2.404e-5, 1.029e-3
-0.203, 2.259e-5, 1.031e-3
-0.204, 2.077e-5, 1.033e-3
-0.205, 1.911e-5, 1.035e-3
-0.206, 1.873e-5, 1.037e-3
-0.207, 1.796e-5, 1.039e-3
-0.208, 1.852e-5, 1.041e-3
-0.209, 2.278e-5, 1.043e-3
-0.210, 2.197e-5, 1.045e-3
-0.211, 1.945e-5, 1.047e-3
-0.212, 1.781e-5, 1.049e-3
-0.213, 1.785e-5, 1.051e-3
-0.214, 1.799e-5, 1.053e-3
-0.215, 1.764e-5, 1.054e-3
-0.216, 1.791e-5, 1.056e-3
-0.217, 1.859e-5, 1.058e-3
-0.218, 1.847e-5, 1.060e-3
-0.219, 1.945e-5, 1.062e-3
-0.220, 1.892e-5, 1.064e-3
-0.221, 1.963e-5, 1.066e-3
-0.222, 2.110e-5, 1.068e-3
-0.223, 2.345e-5, 1.070e-3
-0.224, 2.203e-5, 1.072e-3
-0.225, 2.083e-5, 1.074e-3
-0.226, 2.073e-5, 1.077e-3
-0.227, 2.009e-5, 1.079e-3
-0.228, 1.872e-5, 1.080e-3
-0.229, 1.772e-5, 1.082e-3
-0.230, 1.760e-5, 1.084e-3
-0.231, 1.727e-5, 1.086e-3
-0.232, 1.958e-5, 1.088e-3
-0.233, 2.108e-5, 1.090e-3
-0.234, 2.215e-5, 1.092e-3
-0.235, 2.345e-5, 1.094e-3
-0.236, 2.283e-5, 1.097e-3
-0.237, 2.093e-5, 1.099e-3
-0.238, 2.090e-5, 1.101e-3
-0.239, 2.279e-5, 1.103e-3
-0.240, 2.043e-5, 1.105e-3
-0.241, 1.897e-5, 1.107e-3
-0.242, 2.008e-5, 1.109e-3
-0.243, 1.880e-5, 1.111e-3
-0.244, 1.892e-5, 1.113e-3
-0.245, 1.980e-5, 1.115e-3
-0.246, 2.046e-5, 1.117e-3
-0.247, 2.129e-5, 1.119e-3
-0.248, 2.167e-5, 1.121e-3
-0.249, 1.967e-5, 1.123e-3
-0.250, 1.821e-5, 1.125e-3
-0.251, 2.040e-5, 1.127e-3
-0.252, 2.330e-5, 1.129e-3
-0.253, 2.021e-5, 1.131e-3
-0.254, 1.828e-5, 1.133e-3
-0.255, 1.879e-5, 1.135e-3
-0.256, 1.805e-5, 1.137e-3
-0.257, 1.710e-5, 1.139e-3
-0.258, 1.703e-5, 1.140e-3
-0.259, 1.879e-5, 1.142e-3
-0.260, 1.973e-5, 1.144e-3
-0.261, 1.958e-5, 1.146e-3
-0.262, 1.917e-5, 1.148e-3
-0.263, 1.864e-5, 1.150e-3
-0.264, 1.760e-5, 1.152e-3
-0.265, 1.724e-5, 1.153e-3
-0.266, 1.923e-5, 1.155e-3
-0.267, 2.011e-5, 1.157e-3
-0.268, 2.152e-5, 1.159e-3
-0.269, 2.138e-5, 1.162e-3
-0.270, 1.948e-5, 1.163e-3
-0.271, 1.844e-5, 1.165e-3
-0.272, 2.054e-5, 1.167e-3
-0.273, 2.001e-5, 1.169e-3
-0.274, 1.913e-5, 1.171e-3
-0.275, 1.985e-5, 1.173e-3
-0.276, 2.024e-5, 1.175e-3
-0.277, 1.821e-5, 1.177e-3
-0.278, 1.763e-5, 1.179e-3
-0.279, 1.791e-5, 1.181e-3
-0.280, 1.672e-5, 1.182e-3
-0.281, 1.693e-5, 1.184e-3
-0.282, 1.896e-5, 1.186e-3
-0.283, 1.910e-5, 1.188e-3
-0.284, 1.793e-5, 1.190e-3
-0.285, 1.767e-5, 1.191e-3
-0.286, 1.652e-5, 1.193e-3
-0.287, 1.631e-5, 1.195e-3
-0.288, 1.613e-5, 1.196e-3
-0.289, 1.725e-5, 1.198e-3
-0.290, 1.909e-5, 1.200e-3
-0.291, 2.136e-5, 1.202e-3
-0.292, 1.980e-5, 1.204e-3
-0.293, 1.822e-5, 1.206e-3
-0.294, 1.721e-5, 1.208e-3
-0.295, 1.661e-5, 1.209e-3
-0.296, 1.553e-5, 1.211e-3
-0.297, 1.517e-5, 1.212e-3
-0.298, 1.612e-5, 1.214e-3
-0.299, 1.619e-5, 1.216e-3
