Nov. 2, 2023   13:20:10
Linear Sweep Voltammetry
File: c:\users\dell\desktop\电化学数据\114514\oxide_lsv.txt
Data Source:  Experiment
Instrument Model:  CHI600B
Header: 
Note: 

Init E (V) = 1.25
Final E (V) = -0.3
Scan Rate (V/s) = 0.01
Sample Interval (V) = 0.001
Quiet Time (sec) = 2
Sensitivity (A/V) = 1e-5

Ep = 0.346V
ip = 6.827e-6A
Ah = 4.496e-5C

Ep = -0.299V
ip = 3.338e-7A
Ah = 1.452e-5C

Potential/V, Current/A, Charge/C

Segment 1:
1.249, -5.074e-6, -5.074e-7
1.248, -3.521e-6, -8.595e-7
1.247, -2.814e-6, -1.141e-6
1.246, -2.400e-6, -1.381e-6
1.245, -2.117e-6, -1.593e-6
1.244, -1.902e-6, -1.783e-6
1.243, -1.737e-6, -1.956e-6
1.242, -1.608e-6, -2.117e-6
1.241, -1.501e-6, -2.267e-6
1.240, -1.409e-6, -2.408e-6
1.239, -1.336e-6, -2.542e-6
1.238, -1.265e-6, -2.668e-6
1.237, -1.204e-6, -2.789e-6
1.236, -1.153e-6, -2.904e-6
1.235, -1.101e-6, -3.014e-6
1.234, -1.057e-6, -3.120e-6
1.233, -1.021e-6, -3.222e-6
1.232, -9.877e-7, -3.321e-6
1.231, -9.486e-7, -3.416e-6
1.230, -9.220e-7, -3.508e-6
1.229, -8.921e-7, -3.597e-6
1.228, -8.624e-7, -3.683e-6
1.227, -8.427e-7, -3.767e-6
1.226, -8.126e-7, -3.849e-6
1.225, -7.949e-7, -3.928e-6
1.224, -7.799e-7, -4.006e-6
1.223, -7.496e-7, -4.081e-6
1.222, -7.435e-7, -4.156e-6
1.221, -7.176e-7, -4.227e-6
1.220, -6.981e-7, -4.297e-6
1.219, -6.930e-7, -4.366e-6
1.218, -6.707e-7, -4.433e-6
1.217, -6.506e-7, -4.499e-6
1.216, -6.477e-7, -4.563e-6
1.215, -6.374e-7, -4.627e-6
1.214, -6.116e-7, -4.688e-6
1.213, -6.010e-7, -4.748e-6
1.212, -5.993e-7, -4.808e-6
1.211, -5.955e-7, -4.868e-6
1.210, -5.797e-7, -4.926e-6
1.209, -5.614e-7, -4.982e-6
1.208, -5.521e-7, -5.037e-6
1.207, -5.503e-7, -5.092e-6
1.206, -5.460e-7, -5.147e-6
1.205, -5.329e-7, -5.200e-6
1.204, -5.135e-7, -5.251e-6
1.203, -5.050e-7, -5.302e-6
1.202, -5.021e-7, -5.352e-6
1.201, -5.007e-7, -5.402e-6
1.200, -4.968e-7, -5.452e-6
1.199, -4.857e-7, -5.500e-6
1.198, -4.746e-7, -5.548e-6
1.197, -4.615e-7, -5.594e-6
1.196, -4.562e-7, -5.640e-6
1.195, -4.536e-7, -5.685e-6
1.194, -4.528e-7, -5.730e-6
1.193, -4.516e-7, -5.775e-6
1.192, -4.472e-7, -5.820e-6
1.191, -4.397e-7, -5.864e-6
1.190, -4.268e-7, -5.907e-6
1.189, -4.173e-7, -5.948e-6
1.188, -4.091e-7, -5.989e-6
1.187, -4.062e-7, -6.030e-6
1.186, -4.047e-7, -6.070e-6
1.185, -4.043e-7, -6.111e-6
1.184, -4.040e-7, -6.151e-6
1.183, -4.035e-7, -6.192e-6
1.182, -4.021e-7, -6.232e-6
1.181, -3.992e-7, -6.272e-6
1.180, -3.933e-7, -6.311e-6
1.179, -3.871e-7, -6.350e-6
1.178, -3.774e-7, -6.388e-6
1.177, -3.707e-7, -6.425e-6
1.176, -3.638e-7, -6.461e-6
1.175, -3.600e-7, -6.497e-6
1.174, -3.572e-7, -6.533e-6
1.173, -3.562e-7, -6.568e-6
1.172, -3.555e-7, -6.604e-6
1.171, -3.551e-7, -6.639e-6
1.170, -3.544e-7, -6.675e-6
1.169, -3.531e-7, -6.710e-6
1.168, -3.503e-7, -6.745e-6
1.167, -3.461e-7, -6.780e-6
1.166, -3.369e-7, -6.814e-6
1.165, -3.256e-7, -6.846e-6
1.164, -3.056e-7, -6.877e-6
1.163, -2.919e-7, -6.906e-6
1.162, -2.692e-7, -6.933e-6
1.161, -2.564e-7, -6.958e-6
1.160, -2.381e-7, -6.982e-6
1.159, -2.300e-7, -7.005e-6
1.158, -2.199e-7, -7.027e-6
1.157, -2.163e-7, -7.049e-6
1.156, -2.120e-7, -7.070e-6
1.155, -2.110e-7, -7.091e-6
1.154, -2.095e-7, -7.112e-6
1.153, -2.091e-7, -7.133e-6
1.152, -2.085e-7, -7.154e-6
1.151, -2.080e-7, -7.175e-6
1.150, -2.069e-7, -7.195e-6
1.149, -2.060e-7, -7.216e-6
1.148, -2.044e-7, -7.236e-6
1.147, -2.031e-7, -7.257e-6
1.146, -2.005e-7, -7.277e-6
1.145, -1.990e-7, -7.297e-6
1.144, -1.962e-7, -7.316e-6
1.143, -1.945e-7, -7.336e-6
1.142, -1.909e-7, -7.355e-6
1.141, -1.886e-7, -7.374e-6
1.140, -1.853e-7, -7.392e-6
1.139, -1.822e-7, -7.410e-6
1.138, -1.787e-7, -7.428e-6
1.137, -1.753e-7, -7.446e-6
1.136, -1.719e-7, -7.463e-6
1.135, -1.690e-7, -7.480e-6
1.134, -1.669e-7, -7.497e-6
1.133, -1.647e-7, -7.513e-6
1.132, -1.633e-7, -7.529e-6
1.131, -1.623e-7, -7.546e-6
1.130, -1.616e-7, -7.562e-6
1.129, -1.610e-7, -7.578e-6
1.128, -1.607e-7, -7.594e-6
1.127, -1.604e-7, -7.610e-6
1.126, -1.603e-7, -7.626e-6
1.125, -1.602e-7, -7.642e-6
1.124, -1.601e-7, -7.658e-6
1.123, -1.601e-7, -7.674e-6
1.122, -1.599e-7, -7.690e-6
1.121, -1.598e-7, -7.706e-6
1.120, -1.596e-7, -7.722e-6
1.119, -1.595e-7, -7.738e-6
1.118, -1.593e-7, -7.754e-6
1.117, -1.589e-7, -7.770e-6
1.116, -1.583e-7, -7.786e-6
1.115, -1.579e-7, -7.801e-6
1.114, -1.569e-7, -7.817e-6
1.113, -1.560e-7, -7.833e-6
1.112, -1.550e-7, -7.848e-6
1.111, -1.537e-7, -7.864e-6
1.110, -1.520e-7, -7.879e-6
1.109, -1.501e-7, -7.894e-6
1.108, -1.478e-7, -7.909e-6
1.107, -1.459e-7, -7.923e-6
1.106, -1.433e-7, -7.937e-6
1.105, -1.413e-7, -7.952e-6
1.104, -1.387e-7, -7.965e-6
1.103, -1.361e-7, -7.979e-6
1.102, -1.335e-7, -7.992e-6
1.101, -1.314e-7, -8.006e-6
1.100, -1.290e-7, -8.018e-6
1.099, -1.271e-7, -8.031e-6
1.098, -1.243e-7, -8.044e-6
1.097, -1.228e-7, -8.056e-6
1.096, -1.208e-7, -8.068e-6
1.095, -1.195e-7, -8.080e-6
1.094, -1.177e-7, -8.092e-6
1.093, -1.169e-7, -8.103e-6
1.092, -1.156e-7, -8.115e-6
1.091, -1.150e-7, -8.126e-6
1.090, -1.143e-7, -8.138e-6
1.089, -1.136e-7, -8.149e-6
1.088, -1.129e-7, -8.161e-6
1.087, -1.127e-7, -8.172e-6
1.086, -1.124e-7, -8.183e-6
1.085, -1.121e-7, -8.194e-6
1.084, -1.119e-7, -8.205e-6
1.083, -1.118e-7, -8.217e-6
1.082, -1.117e-7, -8.228e-6
1.081, -1.115e-7, -8.239e-6
1.080, -1.114e-7, -8.250e-6
1.079, -1.113e-7, -8.261e-6
1.078, -1.113e-7, -8.272e-6
1.077, -1.112e-7, -8.283e-6
1.076, -1.111e-7, -8.295e-6
1.075, -1.109e-7, -8.306e-6
1.074, -1.109e-7, -8.317e-6
1.073, -1.107e-7, -8.328e-6
1.072, -1.107e-7, -8.339e-6
1.071, -1.103e-7, -8.350e-6
1.070, -1.103e-7, -8.361e-6
1.069, -1.098e-7, -8.372e-6
1.068, -1.098e-7, -8.383e-6
1.067, -1.092e-7, -8.394e-6
1.066, -1.092e-7, -8.405e-6
1.065, -1.083e-7, -8.416e-6
1.064, -1.085e-7, -8.426e-6
1.063, -1.072e-7, -8.437e-6
1.062, -1.071e-7, -8.448e-6
1.061, -1.058e-7, -8.458e-6
1.060, -1.062e-7, -8.469e-6
1.059, -1.044e-7, -8.479e-6
1.058, -1.050e-7, -8.490e-6
1.057, -1.026e-7, -8.500e-6
1.056, -1.031e-7, -8.511e-6
1.055, -1.005e-7, -8.521e-6
1.054, -1.013e-7, -8.531e-6
1.053, -9.826e-8, -8.541e-6
1.052, -9.901e-8, -8.550e-6
1.051, -9.620e-8, -8.560e-6
1.050, -9.729e-8, -8.570e-6
1.049, -9.380e-8, -8.579e-6
1.048, -9.459e-8, -8.589e-6
1.047, -9.112e-8, -8.598e-6
1.046, -9.213e-8, -8.607e-6
1.045, -8.868e-8, -8.616e-6
1.044, -8.956e-8, -8.625e-6
1.043, -8.578e-8, -8.633e-6
1.042, -8.698e-8, -8.642e-6
1.041, -8.319e-8, -8.650e-6
1.040, -8.438e-8, -8.659e-6
1.039, -8.101e-8, -8.667e-6
1.038, -8.178e-8, -8.675e-6
1.037, -7.846e-8, -8.683e-6
1.036, -7.964e-8, -8.691e-6
1.035, -7.618e-8, -8.699e-6
1.034, -7.718e-8, -8.706e-6
1.033, -7.433e-8, -8.714e-6
1.032, -7.522e-8, -8.721e-6
1.031, -7.243e-8, -8.728e-6
1.030, -7.293e-8, -8.736e-6
1.029, -7.089e-8, -8.743e-6
1.028, -7.113e-8, -8.750e-6
1.027, -6.924e-8, -8.757e-6
1.026, -6.966e-8, -8.764e-6
1.025, -6.809e-8, -8.771e-6
1.024, -6.787e-8, -8.777e-6
1.023, -6.675e-8, -8.784e-6
1.022, -6.717e-8, -8.791e-6
1.021, -6.600e-8, -8.797e-6
1.020, -6.624e-8, -8.804e-6
1.019, -6.520e-8, -8.811e-6
1.018, -6.536e-8, -8.817e-6
1.017, -6.459e-8, -8.824e-6
1.016, -6.468e-8, -8.830e-6
1.015, -6.411e-8, -8.836e-6
1.014, -6.414e-8, -8.843e-6
1.013, -6.367e-8, -8.849e-6
1.012, -6.368e-8, -8.856e-6
1.011, -6.338e-8, -8.862e-6
1.010, -6.331e-8, -8.868e-6
1.009, -6.313e-8, -8.875e-6
1.008, -6.309e-8, -8.881e-6
1.007, -6.294e-8, -8.887e-6
1.006, -6.294e-8, -8.893e-6
1.005, -6.275e-8, -8.900e-6
1.004, -6.275e-8, -8.906e-6
1.003, -6.268e-8, -8.912e-6
1.002, -6.268e-8, -8.919e-6
1.001, -6.257e-8, -8.925e-6
1.000, -6.252e-8, -8.931e-6
0.999, -6.247e-8, -8.937e-6
0.998, -6.249e-8, -8.944e-6
0.997, -6.243e-8, -8.950e-6
0.996, -6.235e-8, -8.956e-6
0.995, -6.228e-8, -8.962e-6
0.994, -6.223e-8, -8.968e-6
0.993, -6.218e-8, -8.975e-6
0.992, -6.210e-8, -8.981e-6
0.991, -6.206e-8, -8.987e-6
0.990, -6.198e-8, -8.993e-6
0.989, -6.188e-8, -9.000e-6
0.988, -6.179e-8, -9.006e-6
0.987, -6.167e-8, -9.012e-6
0.986, -6.154e-8, -9.018e-6
0.985, -6.143e-8, -9.024e-6
0.984, -6.127e-8, -9.030e-6
0.983, -6.113e-8, -9.036e-6
0.982, -6.095e-8, -9.042e-6
0.981, -6.091e-8, -9.049e-6
0.980, -6.045e-8, -9.055e-6
0.979, -6.038e-8, -9.061e-6
0.978, -6.000e-8, -9.067e-6
0.977, -5.967e-8, -9.073e-6
0.976, -5.926e-8, -9.079e-6
0.975, -5.893e-8, -9.084e-6
0.974, -5.875e-8, -9.090e-6
0.973, -5.832e-8, -9.096e-6
0.972, -5.756e-8, -9.102e-6
0.971, -5.732e-8, -9.108e-6
0.970, -5.664e-8, -9.113e-6
0.969, -5.617e-8, -9.119e-6
0.968, -5.578e-8, -9.124e-6
0.967, -5.504e-8, -9.130e-6
0.966, -5.395e-8, -9.135e-6
0.965, -5.378e-8, -9.141e-6
0.964, -5.274e-8, -9.146e-6
0.963, -5.238e-8, -9.151e-6
0.962, -5.119e-8, -9.156e-6
0.961, -5.057e-8, -9.161e-6
0.960, -4.884e-8, -9.166e-6
0.959, -4.848e-8, -9.171e-6
0.958, -4.715e-8, -9.176e-6
0.957, -4.670e-8, -9.181e-6
0.956, -4.519e-8, -9.185e-6
0.955, -4.525e-8, -9.190e-6
0.954, -4.316e-8, -9.194e-6
0.953, -4.281e-8, -9.198e-6
0.952, -4.127e-8, -9.202e-6
0.951, -4.098e-8, -9.206e-6
0.950, -3.928e-8, -9.210e-6
0.949, -3.845e-8, -9.214e-6
0.948, -3.663e-8, -9.218e-6
0.947, -3.732e-8, -9.222e-6
0.946, -3.495e-8, -9.225e-6
0.945, -3.463e-8, -9.229e-6
0.944, -3.290e-8, -9.232e-6
0.943, -3.168e-8, -9.235e-6
0.942, -3.042e-8, -9.238e-6
0.941, -3.015e-8, -9.241e-6
0.940, -2.816e-8, -9.244e-6
0.939, -2.852e-8, -9.247e-6
0.938, -2.718e-8, -9.249e-6
0.937, -2.661e-8, -9.252e-6
0.936, -2.525e-8, -9.255e-6
0.935, -2.494e-8, -9.257e-6
0.934, -2.328e-8, -9.259e-6
0.933, -2.321e-8, -9.262e-6
0.932, -2.223e-8, -9.264e-6
0.931, -2.212e-8, -9.266e-6
0.930, -2.078e-8, -9.268e-6
0.929, -2.062e-8, -9.270e-6
0.928, -1.980e-8, -9.272e-6
0.927, -1.938e-8, -9.274e-6
0.926, -1.880e-8, -9.276e-6
0.925, -1.830e-8, -9.278e-6
0.924, -1.766e-8, -9.280e-6
0.923, -1.766e-8, -9.282e-6
0.922, -1.694e-8, -9.283e-6
0.921, -1.685e-8, -9.285e-6
0.920, -1.630e-8, -9.287e-6
0.919, -1.619e-8, -9.288e-6
0.918, -1.586e-8, -9.290e-6
0.917, -1.576e-8, -9.291e-6
0.916, -1.541e-8, -9.293e-6
0.915, -1.531e-8, -9.294e-6
0.914, -1.499e-8, -9.296e-6
0.913, -1.492e-8, -9.297e-6
0.912, -1.483e-8, -9.299e-6
0.911, -1.467e-8, -9.300e-6
0.910, -1.456e-8, -9.302e-6
0.909, -1.436e-8, -9.303e-6
0.908, -1.422e-8, -9.305e-6
0.907, -1.423e-8, -9.306e-6
0.906, -1.405e-8, -9.307e-6
0.905, -1.407e-8, -9.309e-6
0.904, -1.397e-8, -9.310e-6
0.903, -1.388e-8, -9.312e-6
0.902, -1.380e-8, -9.313e-6
0.901, -1.380e-8, -9.314e-6
0.900, -1.370e-8, -9.316e-6
0.899, -1.370e-8, -9.317e-6
0.898, -1.357e-8, -9.319e-6
0.897, -1.356e-8, -9.320e-6
0.896, -1.350e-8, -9.321e-6
0.895, -1.347e-8, -9.323e-6
0.894, -1.336e-8, -9.324e-6
0.893, -1.336e-8, -9.325e-6
0.892, -1.322e-8, -9.327e-6
0.891, -1.321e-8, -9.328e-6
0.890, -1.312e-8, -9.329e-6
0.889, -1.313e-8, -9.331e-6
0.888, -1.289e-8, -9.332e-6
0.887, -1.290e-8, -9.333e-6
0.886, -1.274e-8, -9.334e-6
0.885, -1.275e-8, -9.336e-6
0.884, -1.255e-8, -9.337e-6
0.883, -1.247e-8, -9.338e-6
0.882, -1.226e-8, -9.339e-6
0.881, -1.233e-8, -9.341e-6
0.880, -1.186e-8, -9.342e-6
0.879, -1.193e-8, -9.343e-6
0.878, -1.159e-8, -9.344e-6
0.877, -1.174e-8, -9.345e-6
0.876, -1.123e-8, -9.346e-6
0.875, -1.119e-8, -9.348e-6
0.874, -1.065e-8, -9.349e-6
0.873, -1.069e-8, -9.350e-6
0.872, -1.008e-8, -9.351e-6
0.871, -1.014e-8, -9.352e-6
0.870, -9.364e-9, -9.353e-6
0.869, -9.568e-9, -9.354e-6
0.868, -8.466e-9, -9.354e-6
0.867, -8.862e-9, -9.355e-6
0.866, -7.865e-9, -9.356e-6
0.865, -8.036e-9, -9.357e-6
0.864, -6.960e-9, -9.358e-6
0.863, -7.105e-9, -9.358e-6
0.862, -6.075e-9, -9.359e-6
0.861, -6.161e-9, -9.360e-6
0.860, -4.866e-9, -9.360e-6
0.859, -4.926e-9, -9.361e-6
0.858, -3.453e-9, -9.361e-6
0.857, -3.625e-9, -9.361e-6
0.856, -1.981e-9, -9.361e-6
0.855, -2.377e-9, -9.362e-6
0.854, -3.560e-10, -9.362e-6
0.853, -5.805e-10, -9.362e-6
0.852, 9.252e-10, -9.362e-6
0.851, 5.487e-10, -9.362e-6
0.850, 2.398e-9, -9.361e-6
0.849, 2.523e-9, -9.361e-6
0.848, 3.831e-9, -9.361e-6
0.847, 3.904e-9, -9.360e-6
0.846, 5.766e-9, -9.360e-6
0.845, 4.987e-9, -9.359e-6
0.844, 7.390e-9, -9.359e-6
0.843, 7.212e-9, -9.358e-6
0.842, 9.913e-9, -9.357e-6
0.841, 9.543e-9, -9.356e-6
0.840, 1.154e-8, -9.355e-6
0.839, 1.143e-8, -9.354e-6
0.838, 1.333e-8, -9.352e-6
0.837, 1.294e-8, -9.351e-6
0.836, 1.504e-8, -9.349e-6
0.835, 1.491e-8, -9.348e-6
0.834, 1.675e-8, -9.346e-6
0.833, 1.600e-8, -9.345e-6
0.832, 1.891e-8, -9.343e-6
0.831, 1.849e-8, -9.341e-6
0.830, 2.010e-8, -9.339e-6
0.829, 2.009e-8, -9.337e-6
0.828, 2.218e-8, -9.335e-6
0.827, 2.165e-8, -9.333e-6
0.826, 2.354e-8, -9.330e-6
0.825, 2.333e-8, -9.328e-6
0.824, 2.448e-8, -9.325e-6
0.823, 2.459e-8, -9.323e-6
0.822, 2.605e-8, -9.320e-6
0.821, 2.558e-8, -9.318e-6
0.820, 2.707e-8, -9.315e-6
0.819, 2.597e-8, -9.312e-6
0.818, 2.821e-8, -9.310e-6
0.817, 2.842e-8, -9.307e-6
0.816, 2.944e-8, -9.304e-6
0.815, 2.925e-8, -9.301e-6
0.814, 3.017e-8, -9.298e-6
0.813, 3.002e-8, -9.295e-6
0.812, 3.103e-8, -9.292e-6
0.811, 3.099e-8, -9.289e-6
0.810, 3.163e-8, -9.286e-6
0.809, 3.181e-8, -9.282e-6
0.808, 3.231e-8, -9.279e-6
0.807, 3.229e-8, -9.276e-6
0.806, 3.293e-8, -9.273e-6
0.805, 3.281e-8, -9.269e-6
0.804, 3.343e-8, -9.266e-6
0.803, 3.327e-8, -9.263e-6
0.802, 3.371e-8, -9.259e-6
0.801, 3.359e-8, -9.256e-6
0.800, 3.392e-8, -9.253e-6
0.799, 3.393e-8, -9.249e-6
0.798, 3.416e-8, -9.246e-6
0.797, 3.416e-8, -9.242e-6
0.796, 3.439e-8, -9.239e-6
0.795, 3.439e-8, -9.235e-6
0.794, 3.454e-8, -9.232e-6
0.793, 3.447e-8, -9.229e-6
0.792, 3.473e-8, -9.225e-6
0.791, 3.475e-8, -9.222e-6
0.790, 3.485e-8, -9.218e-6
0.789, 3.482e-8, -9.215e-6
0.788, 3.493e-8, -9.211e-6
0.787, 3.491e-8, -9.208e-6
0.786, 3.498e-8, -9.204e-6
0.785, 3.500e-8, -9.201e-6
0.784, 3.505e-8, -9.197e-6
0.783, 3.505e-8, -9.194e-6
0.782, 3.509e-8, -9.190e-6
0.781, 3.510e-8, -9.187e-6
0.780, 3.513e-8, -9.183e-6
0.779, 3.515e-8, -9.180e-6
0.778, 3.518e-8, -9.176e-6
0.777, 3.519e-8, -9.173e-6
0.776, 3.521e-8, -9.169e-6
0.775, 3.522e-8, -9.166e-6
0.774, 3.525e-8, -9.162e-6
0.773, 3.524e-8, -9.158e-6
0.772, 3.529e-8, -9.155e-6
0.771, 3.530e-8, -9.151e-6
0.770, 3.532e-8, -9.148e-6
0.769, 3.534e-8, -9.144e-6
0.768, 3.538e-8, -9.141e-6
0.767, 3.542e-8, -9.137e-6
0.766, 3.547e-8, -9.134e-6
0.765, 3.544e-8, -9.130e-6
0.764, 3.558e-8, -9.127e-6
0.763, 3.553e-8, -9.123e-6
0.762, 3.567e-8, -9.120e-6
0.761, 3.569e-8, -9.116e-6
0.760, 3.579e-8, -9.112e-6
0.759, 3.581e-8, -9.109e-6
0.758, 3.600e-8, -9.105e-6
0.757, 3.607e-8, -9.102e-6
0.756, 3.622e-8, -9.098e-6
0.755, 3.646e-8, -9.094e-6
0.754, 3.657e-8, -9.091e-6
0.753, 3.665e-8, -9.087e-6
0.752, 3.702e-8, -9.083e-6
0.751, 3.711e-8, -9.080e-6
0.750, 3.737e-8, -9.076e-6
0.749, 3.759e-8, -9.072e-6
0.748, 3.816e-8, -9.068e-6
0.747, 3.816e-8, -9.064e-6
0.746, 3.873e-8, -9.061e-6
0.745, 3.908e-8, -9.057e-6
0.744, 3.971e-8, -9.053e-6
0.743, 3.995e-8, -9.049e-6
0.742, 4.023e-8, -9.045e-6
0.741, 4.064e-8, -9.041e-6
0.740, 4.179e-8, -9.036e-6
0.739, 4.215e-8, -9.032e-6
0.738, 4.318e-8, -9.028e-6
0.737, 4.374e-8, -9.024e-6
0.736, 4.485e-8, -9.019e-6
0.735, 4.564e-8, -9.014e-6
0.734, 4.666e-8, -9.010e-6
0.733, 4.760e-8, -9.005e-6
0.732, 4.892e-8, -9.000e-6
0.731, 4.941e-8, -8.995e-6
0.730, 5.119e-8, -8.990e-6
0.729, 5.259e-8, -8.985e-6
0.728, 5.364e-8, -8.979e-6
0.727, 5.484e-8, -8.974e-6
0.726, 5.584e-8, -8.968e-6
0.725, 5.737e-8, -8.963e-6
0.724, 5.939e-8, -8.957e-6
0.723, 5.936e-8, -8.951e-6
0.722, 6.172e-8, -8.945e-6
0.721, 6.279e-8, -8.938e-6
0.720, 6.413e-8, -8.932e-6
0.719, 6.546e-8, -8.925e-6
0.718, 6.669e-8, -8.919e-6
0.717, 6.776e-8, -8.912e-6
0.716, 6.998e-8, -8.905e-6
0.715, 7.033e-8, -8.898e-6
0.714, 7.174e-8, -8.891e-6
0.713, 7.234e-8, -8.883e-6
0.712, 7.369e-8, -8.876e-6
0.711, 7.454e-8, -8.869e-6
0.710, 7.548e-8, -8.861e-6
0.709, 7.589e-8, -8.854e-6
0.708, 7.750e-8, -8.846e-6
0.707, 7.764e-8, -8.838e-6
0.706, 7.886e-8, -8.830e-6
0.705, 7.931e-8, -8.822e-6
0.704, 8.024e-8, -8.814e-6
0.703, 8.034e-8, -8.806e-6
0.702, 8.107e-8, -8.798e-6
0.701, 8.112e-8, -8.790e-6
0.700, 8.188e-8, -8.782e-6
0.699, 8.198e-8, -8.774e-6
0.698, 8.237e-8, -8.765e-6
0.697, 8.248e-8, -8.757e-6
0.696, 8.288e-8, -8.749e-6
0.695, 8.293e-8, -8.740e-6
0.694, 8.320e-8, -8.732e-6
0.693, 8.329e-8, -8.724e-6
0.692, 8.348e-8, -8.715e-6
0.691, 8.337e-8, -8.707e-6
0.690, 8.366e-8, -8.699e-6
0.689, 8.374e-8, -8.690e-6
0.688, 8.382e-8, -8.682e-6
0.687, 8.388e-8, -8.674e-6
0.686, 8.393e-8, -8.665e-6
0.685, 8.400e-8, -8.657e-6
0.684, 8.410e-8, -8.648e-6
0.683, 8.419e-8, -8.640e-6
0.682, 8.422e-8, -8.632e-6
0.681, 8.435e-8, -8.623e-6
0.680, 8.440e-8, -8.615e-6
0.679, 8.459e-8, -8.606e-6
0.678, 8.465e-8, -8.598e-6
0.677, 8.483e-8, -8.589e-6
0.676, 8.485e-8, -8.581e-6
0.675, 8.528e-8, -8.572e-6
0.674, 8.522e-8, -8.564e-6
0.673, 8.573e-8, -8.555e-6
0.672, 8.568e-8, -8.547e-6
0.671, 8.629e-8, -8.538e-6
0.670, 8.635e-8, -8.529e-6
0.669, 8.710e-8, -8.521e-6
0.668, 8.723e-8, -8.512e-6
0.667, 8.789e-8, -8.503e-6
0.666, 8.825e-8, -8.494e-6
0.665, 8.963e-8, -8.485e-6
0.664, 8.927e-8, -8.476e-6
0.663, 9.080e-8, -8.467e-6
0.662, 9.072e-8, -8.458e-6
0.661, 9.266e-8, -8.449e-6
0.660, 9.255e-8, -8.440e-6
0.659, 9.441e-8, -8.430e-6
0.658, 9.435e-8, -8.421e-6
0.657, 9.706e-8, -8.411e-6
0.656, 9.652e-8, -8.402e-6
0.655, 1.000e-7, -8.392e-6
0.654, 9.924e-8, -8.382e-6
0.653, 1.029e-7, -8.371e-6
0.652, 1.022e-7, -8.361e-6
0.651, 1.053e-7, -8.351e-6
0.650, 1.047e-7, -8.340e-6
0.649, 1.085e-7, -8.329e-6
0.648, 1.075e-7, -8.318e-6
0.647, 1.116e-7, -8.307e-6
0.646, 1.107e-7, -8.296e-6
0.645, 1.150e-7, -8.285e-6
0.644, 1.138e-7, -8.273e-6
0.643, 1.174e-7, -8.262e-6
0.642, 1.167e-7, -8.250e-6
0.641, 1.205e-7, -8.238e-6
0.640, 1.186e-7, -8.226e-6
0.639, 1.227e-7, -8.214e-6
0.638, 1.221e-7, -8.202e-6
0.637, 1.250e-7, -8.189e-6
0.636, 1.248e-7, -8.177e-6
0.635, 1.271e-7, -8.164e-6
0.634, 1.268e-7, -8.151e-6
0.633, 1.287e-7, -8.138e-6
0.632, 1.284e-7, -8.125e-6
0.631, 1.300e-7, -8.112e-6
0.630, 1.300e-7, -8.100e-6
0.629, 1.309e-7, -8.086e-6
0.628, 1.308e-7, -8.073e-6
0.627, 1.317e-7, -8.060e-6
0.626, 1.317e-7, -8.047e-6
0.625, 1.321e-7, -8.034e-6
0.624, 1.321e-7, -8.021e-6
0.623, 1.324e-7, -8.007e-6
0.622, 1.324e-7, -7.994e-6
0.621, 1.326e-7, -7.981e-6
0.620, 1.327e-7, -7.968e-6
0.619, 1.328e-7, -7.954e-6
0.618, 1.329e-7, -7.941e-6
0.617, 1.330e-7, -7.928e-6
0.616, 1.331e-7, -7.914e-6
0.615, 1.332e-7, -7.901e-6
0.614, 1.334e-7, -7.888e-6
0.613, 1.335e-7, -7.874e-6
0.612, 1.338e-7, -7.861e-6
0.611, 1.339e-7, -7.848e-6
0.610, 1.344e-7, -7.834e-6
0.609, 1.347e-7, -7.821e-6
0.608, 1.355e-7, -7.807e-6
0.607, 1.360e-7, -7.794e-6
0.606, 1.370e-7, -7.780e-6
0.605, 1.381e-7, -7.766e-6
0.604, 1.397e-7, -7.752e-6
0.603, 1.409e-7, -7.738e-6
0.602, 1.429e-7, -7.724e-6
0.601, 1.445e-7, -7.709e-6
0.600, 1.472e-7, -7.695e-6
0.599, 1.495e-7, -7.680e-6
0.598, 1.525e-7, -7.664e-6
0.597, 1.546e-7, -7.649e-6
0.596, 1.581e-7, -7.633e-6
0.595, 1.599e-7, -7.617e-6
0.594, 1.635e-7, -7.601e-6
0.593, 1.655e-7, -7.584e-6
0.592, 1.689e-7, -7.567e-6
0.591, 1.707e-7, -7.550e-6
0.590, 1.730e-7, -7.533e-6
0.589, 1.740e-7, -7.516e-6
0.588, 1.761e-7, -7.498e-6
0.587, 1.771e-7, -7.480e-6
0.586, 1.785e-7, -7.462e-6
0.585, 1.793e-7, -7.444e-6
0.584, 1.801e-7, -7.426e-6
0.583, 1.804e-7, -7.408e-6
0.582, 1.809e-7, -7.390e-6
0.581, 1.811e-7, -7.372e-6
0.580, 1.814e-7, -7.354e-6
0.579, 1.815e-7, -7.336e-6
0.578, 1.817e-7, -7.318e-6
0.577, 1.818e-7, -7.300e-6
0.576, 1.819e-7, -7.281e-6
0.575, 1.822e-7, -7.263e-6
0.574, 1.824e-7, -7.245e-6
0.573, 1.826e-7, -7.227e-6
0.572, 1.833e-7, -7.208e-6
0.571, 1.838e-7, -7.190e-6
0.570, 1.848e-7, -7.171e-6
0.569, 1.860e-7, -7.153e-6
0.568, 1.875e-7, -7.134e-6
0.567, 1.897e-7, -7.115e-6
0.566, 1.921e-7, -7.096e-6
0.565, 1.949e-7, -7.076e-6
0.564, 1.984e-7, -7.057e-6
0.563, 2.024e-7, -7.036e-6
0.562, 2.067e-7, -7.016e-6
0.561, 2.104e-7, -6.995e-6
0.560, 2.141e-7, -6.973e-6
0.559, 2.177e-7, -6.951e-6
0.558, 2.210e-7, -6.929e-6
0.557, 2.236e-7, -6.907e-6
0.556, 2.255e-7, -6.884e-6
0.555, 2.273e-7, -6.862e-6
0.554, 2.285e-7, -6.839e-6
0.553, 2.293e-7, -6.816e-6
0.552, 2.299e-7, -6.793e-6
0.551, 2.302e-7, -6.770e-6
0.550, 2.304e-7, -6.747e-6
0.549, 2.305e-7, -6.724e-6
0.548, 2.306e-7, -6.701e-6
0.547, 2.307e-7, -6.678e-6
0.546, 2.309e-7, -6.655e-6
0.545, 2.312e-7, -6.631e-6
0.544, 2.318e-7, -6.608e-6
0.543, 2.325e-7, -6.585e-6
0.542, 2.343e-7, -6.562e-6
0.541, 2.364e-7, -6.538e-6
0.540, 2.399e-7, -6.514e-6
0.539, 2.436e-7, -6.490e-6
0.538, 2.484e-7, -6.465e-6
0.537, 2.535e-7, -6.439e-6
0.536, 2.600e-7, -6.413e-6
0.535, 2.653e-7, -6.387e-6
0.534, 2.705e-7, -6.360e-6
0.533, 2.738e-7, -6.332e-6
0.532, 2.764e-7, -6.305e-6
0.531, 2.776e-7, -6.277e-6
0.530, 2.787e-7, -6.249e-6
0.529, 2.791e-7, -6.221e-6
0.528, 2.794e-7, -6.193e-6
0.527, 2.799e-7, -6.165e-6
0.526, 2.804e-7, -6.137e-6
0.525, 2.821e-7, -6.109e-6
0.524, 2.837e-7, -6.081e-6
0.523, 2.880e-7, -6.052e-6
0.522, 2.913e-7, -6.023e-6
0.521, 2.987e-7, -5.993e-6
0.520, 3.021e-7, -5.963e-6
0.519, 3.114e-7, -5.932e-6
0.518, 3.151e-7, -5.900e-6
0.517, 3.215e-7, -5.868e-6
0.516, 3.238e-7, -5.836e-6
0.515, 3.268e-7, -5.803e-6
0.514, 3.276e-7, -5.770e-6
0.513, 3.281e-7, -5.737e-6
0.512, 3.286e-7, -5.704e-6
0.511, 3.296e-7, -5.672e-6
0.510, 3.321e-7, -5.638e-6
0.509, 3.368e-7, -5.605e-6
0.508, 3.455e-7, -5.570e-6
0.507, 3.551e-7, -5.535e-6
0.506, 3.657e-7, -5.498e-6
0.505, 3.717e-7, -5.461e-6
0.504, 3.755e-7, -5.423e-6
0.503, 3.766e-7, -5.386e-6
0.502, 3.771e-7, -5.348e-6
0.501, 3.779e-7, -5.310e-6
0.500, 3.804e-7, -5.272e-6
0.499, 3.871e-7, -5.233e-6
0.498, 3.992e-7, -5.193e-6
0.497, 4.115e-7, -5.152e-6
0.496, 4.209e-7, -5.110e-6
0.495, 4.248e-7, -5.068e-6
0.494, 4.257e-7, -5.025e-6
0.493, 4.261e-7, -4.983e-6
0.492, 4.276e-7, -4.940e-6
0.491, 4.334e-7, -4.896e-6
0.490, 4.476e-7, -4.852e-6
0.489, 4.632e-7, -4.805e-6
0.488, 4.723e-7, -4.758e-6
0.487, 4.745e-7, -4.711e-6
0.486, 4.759e-7, -4.663e-6
0.485, 4.818e-7, -4.615e-6
0.484, 4.936e-7, -4.566e-6
0.483, 5.116e-7, -4.514e-6
0.482, 5.203e-7, -4.462e-6
0.481, 5.234e-7, -4.410e-6
0.480, 5.253e-7, -4.358e-6
0.479, 5.360e-7, -4.304e-6
0.478, 5.583e-7, -4.248e-6
0.477, 5.703e-7, -4.191e-6
0.476, 5.729e-7, -4.134e-6
0.475, 5.794e-7, -4.076e-6
0.474, 6.021e-7, -4.016e-6
0.473, 6.187e-7, -3.954e-6
0.472, 6.212e-7, -3.892e-6
0.471, 6.250e-7, -3.829e-6
0.470, 6.485e-7, -3.764e-6
0.469, 6.679e-7, -3.697e-6
0.468, 6.722e-7, -3.630e-6
0.467, 6.907e-7, -3.561e-6
0.466, 7.122e-7, -3.490e-6
0.465, 7.194e-7, -3.418e-6
0.464, 7.367e-7, -3.344e-6
0.463, 7.647e-7, -3.268e-6
0.462, 7.713e-7, -3.191e-6
0.461, 8.001e-7, -3.111e-6
0.460, 8.163e-7, -3.029e-6
0.459, 8.255e-7, -2.947e-6
0.458, 8.610e-7, -2.860e-6
0.457, 8.736e-7, -2.773e-6
0.456, 9.040e-7, -2.683e-6
0.455, 9.167e-7, -2.591e-6
0.454, 9.530e-7, -2.496e-6
0.453, 9.663e-7, -2.399e-6
0.452, 1.004e-6, -2.299e-6
0.451, 1.017e-6, -2.197e-6
0.450, 1.057e-6, -2.091e-6
0.449, 1.082e-6, -1.983e-6
0.448, 1.110e-6, -1.872e-6
0.447, 1.149e-6, -1.757e-6
0.446, 1.184e-6, -1.639e-6
0.445, 1.227e-6, -1.516e-6
0.444, 1.260e-6, -1.390e-6
0.443, 1.302e-6, -1.260e-6
0.442, 1.341e-6, -1.126e-6
0.441, 1.379e-6, -9.879e-7
0.440, 1.413e-6, -8.466e-7
0.439, 1.456e-6, -7.010e-7
0.438, 1.501e-6, -5.508e-7
0.437, 1.547e-6, -3.961e-7
0.436, 1.596e-6, -2.365e-7
0.435, 1.641e-6, -7.241e-8
0.434, 1.691e-6, 9.670e-8
0.433, 1.741e-6, 2.708e-7
0.432, 1.794e-6, 4.502e-7
0.431, 1.849e-6, 6.351e-7
0.430, 1.905e-6, 8.257e-7
0.429, 1.966e-6, 1.022e-6
0.428, 2.025e-6, 1.225e-6
0.427, 2.089e-6, 1.434e-6
0.426, 2.154e-6, 1.649e-6
0.425, 2.217e-6, 1.871e-6
0.424, 2.288e-6, 2.100e-6
0.423, 2.358e-6, 2.335e-6
0.422, 2.431e-6, 2.578e-6
0.421, 2.504e-6, 2.829e-6
0.420, 2.581e-6, 3.087e-6
0.419, 2.657e-6, 3.353e-6
0.418, 2.745e-6, 3.627e-6
0.417, 2.827e-6, 3.910e-6
0.416, 2.911e-6, 4.201e-6
0.415, 2.993e-6, 4.500e-6
0.414, 3.083e-6, 4.809e-6
0.413, 3.174e-6, 5.126e-6
0.412, 3.264e-6, 5.452e-6
0.411, 3.355e-6, 5.788e-6
0.410, 3.450e-6, 6.133e-6
0.409, 3.546e-6, 6.488e-6
0.408, 3.645e-6, 6.852e-6
0.407, 3.742e-6, 7.226e-6
0.406, 3.842e-6, 7.610e-6
0.405, 3.942e-6, 8.005e-6
0.404, 4.044e-6, 8.409e-6
0.403, 4.145e-6, 8.824e-6
0.402, 4.248e-6, 9.248e-6
0.401, 4.366e-6, 9.685e-6
0.400, 4.470e-6, 1.013e-5
0.399, 4.573e-6, 1.059e-5
0.398, 4.677e-6, 1.106e-5
0.397, 4.779e-6, 1.153e-5
0.396, 4.883e-6, 1.202e-5
0.395, 4.984e-6, 1.252e-5
0.394, 5.085e-6, 1.303e-5
0.393, 5.185e-6, 1.355e-5
0.392, 5.282e-6, 1.408e-5
0.391, 5.380e-6, 1.461e-5
0.390, 5.476e-6, 1.516e-5
0.389, 5.570e-6, 1.572e-5
0.388, 5.661e-6, 1.629e-5
0.387, 5.750e-6, 1.686e-5
0.386, 5.836e-6, 1.744e-5
0.385, 5.919e-6, 1.804e-5
0.384, 6.002e-6, 1.864e-5
0.383, 6.080e-6, 1.924e-5
0.382, 6.158e-6, 1.986e-5
0.381, 6.232e-6, 2.048e-5
0.380, 6.306e-6, 2.111e-5
0.379, 6.374e-6, 2.175e-5
0.378, 6.444e-6, 2.240e-5
0.377, 6.506e-6, 2.305e-5
0.376, 6.567e-6, 2.370e-5
0.375, 6.626e-6, 2.437e-5
0.374, 6.681e-6, 2.503e-5
0.373, 6.734e-6, 2.571e-5
0.372, 6.783e-6, 2.639e-5
0.371, 6.831e-6, 2.707e-5
0.370, 6.874e-6, 2.776e-5
0.369, 6.919e-6, 2.845e-5
0.368, 6.959e-6, 2.914e-5
0.367, 6.992e-6, 2.984e-5
0.366, 7.023e-6, 3.054e-5
0.365, 7.063e-6, 3.125e-5
0.364, 7.078e-6, 3.196e-5
0.363, 7.114e-6, 3.267e-5
0.362, 7.133e-6, 3.338e-5
0.361, 7.161e-6, 3.410e-5
0.360, 7.168e-6, 3.482e-5
0.359, 7.200e-6, 3.554e-5
0.358, 7.213e-6, 3.626e-5
0.357, 7.215e-6, 3.698e-5
0.356, 7.231e-6, 3.770e-5
0.355, 7.253e-6, 3.843e-5
0.354, 7.261e-6, 3.915e-5
0.353, 7.262e-6, 3.988e-5
0.352, 7.262e-6, 4.061e-5
0.351, 7.264e-6, 4.133e-5
0.350, 7.266e-6, 4.206e-5
0.349, 7.268e-6, 4.279e-5
0.348, 7.270e-6, 4.351e-5
0.347, 7.273e-6, 4.424e-5
0.346, 7.273e-6, 4.497e-5
0.345, 7.273e-6, 4.569e-5
0.344, 7.269e-6, 4.642e-5
0.343, 7.265e-6, 4.715e-5
0.342, 7.263e-6, 4.787e-5
0.341, 7.262e-6, 4.860e-5
0.340, 7.262e-6, 4.933e-5
0.339, 7.262e-6, 5.005e-5
0.338, 7.261e-6, 5.078e-5
0.337, 7.257e-6, 5.151e-5
0.336, 7.247e-6, 5.223e-5
0.335, 7.235e-6, 5.295e-5
0.334, 7.221e-6, 5.368e-5
0.333, 7.215e-6, 5.440e-5
0.332, 7.213e-6, 5.512e-5
0.331, 7.212e-6, 5.584e-5
0.330, 7.208e-6, 5.656e-5
0.329, 7.195e-6, 5.728e-5
0.328, 7.179e-6, 5.800e-5
0.327, 7.167e-6, 5.871e-5
0.326, 7.164e-6, 5.943e-5
0.325, 7.163e-6, 6.015e-5
0.324, 7.158e-6, 6.086e-5
0.323, 7.143e-6, 6.158e-5
0.322, 7.130e-6, 6.229e-5
0.321, 7.119e-6, 6.300e-5
0.320, 7.116e-6, 6.371e-5
0.319, 7.114e-6, 6.442e-5
0.318, 7.108e-6, 6.514e-5
0.317, 7.092e-6, 6.584e-5
0.316, 7.074e-6, 6.655e-5
0.315, 7.067e-6, 6.726e-5
0.314, 7.067e-6, 6.797e-5
0.313, 7.066e-6, 6.867e-5
0.312, 7.062e-6, 6.938e-5
0.311, 7.052e-6, 7.008e-5
0.310, 7.036e-6, 7.079e-5
0.309, 7.024e-6, 7.149e-5
0.308, 7.018e-6, 7.219e-5
0.307, 7.017e-6, 7.289e-5
0.306, 7.016e-6, 7.359e-5
0.305, 7.008e-6, 7.430e-5
0.304, 6.993e-6, 7.499e-5
0.303, 6.979e-6, 7.569e-5
0.302, 6.971e-6, 7.639e-5
0.301, 6.969e-6, 7.709e-5
0.300, 6.968e-6, 7.778e-5
0.299, 6.964e-6, 7.848e-5
0.298, 6.956e-6, 7.918e-5
0.297, 6.947e-6, 7.987e-5
0.296, 6.934e-6, 8.056e-5
0.295, 6.925e-6, 8.126e-5
0.294, 6.921e-6, 8.195e-5
0.293, 6.920e-6, 8.264e-5
0.292, 6.919e-6, 8.333e-5
0.291, 6.913e-6, 8.402e-5
0.290, 6.903e-6, 8.471e-5
0.289, 6.895e-6, 8.540e-5
0.288, 6.882e-6, 8.609e-5
0.287, 6.876e-6, 8.678e-5
0.286, 6.872e-6, 8.747e-5
0.285, 6.871e-6, 8.815e-5
0.284, 6.871e-6, 8.884e-5
0.283, 6.869e-6, 8.953e-5
0.282, 6.864e-6, 9.021e-5
0.281, 6.857e-6, 9.090e-5
0.280, 6.846e-6, 9.158e-5
0.279, 6.836e-6, 9.227e-5
0.278, 6.828e-6, 9.295e-5
0.277, 6.824e-6, 9.363e-5
0.276, 6.823e-6, 9.432e-5
0.275, 6.822e-6, 9.500e-5
0.274, 6.820e-6, 9.568e-5
0.273, 6.817e-6, 9.636e-5
0.272, 6.811e-6, 9.704e-5
0.271, 6.800e-6, 9.772e-5
0.270, 6.788e-6, 9.840e-5
0.269, 6.779e-6, 9.908e-5
0.268, 6.776e-6, 9.976e-5
0.267, 6.774e-6, 1.004e-4
0.266, 6.773e-6, 1.011e-4
0.265, 6.773e-6, 1.018e-4
0.264, 6.771e-6, 1.025e-4
0.263, 6.767e-6, 1.031e-4
0.262, 6.759e-6, 1.038e-4
0.261, 6.749e-6, 1.045e-4
0.260, 6.737e-6, 1.052e-4
0.259, 6.729e-6, 1.058e-4
0.258, 6.726e-6, 1.065e-4
0.257, 6.725e-6, 1.072e-4
0.256, 6.725e-6, 1.079e-4
0.255, 6.724e-6, 1.085e-4
0.254, 6.723e-6, 1.092e-4
0.253, 6.718e-6, 1.099e-4
0.252, 6.710e-6, 1.105e-4
0.251, 6.700e-6, 1.112e-4
0.250, 6.688e-6, 1.119e-4
0.249, 6.680e-6, 1.126e-4
0.248, 6.678e-6, 1.132e-4
0.247, 6.677e-6, 1.139e-4
0.246, 6.676e-6, 1.146e-4
0.245, 6.676e-6, 1.152e-4
0.244, 6.675e-6, 1.159e-4
0.243, 6.673e-6, 1.166e-4
0.242, 6.664e-6, 1.172e-4
0.241, 6.653e-6, 1.179e-4
0.240, 6.648e-6, 1.186e-4
0.239, 6.638e-6, 1.192e-4
0.238, 6.631e-6, 1.199e-4
0.237, 6.628e-6, 1.205e-4
0.236, 6.627e-6, 1.212e-4
0.235, 6.627e-6, 1.219e-4
0.234, 6.626e-6, 1.225e-4
0.233, 6.621e-6, 1.232e-4
0.232, 6.617e-6, 1.239e-4
0.231, 6.611e-6, 1.245e-4
0.230, 6.599e-6, 1.252e-4
0.229, 6.589e-6, 1.258e-4
0.228, 6.581e-6, 1.265e-4
0.227, 6.579e-6, 1.272e-4
0.226, 6.578e-6, 1.278e-4
0.225, 6.577e-6, 1.285e-4
0.224, 6.575e-6, 1.291e-4
0.223, 6.572e-6, 1.298e-4
0.222, 6.563e-6, 1.304e-4
0.221, 6.551e-6, 1.311e-4
0.220, 6.542e-6, 1.317e-4
0.219, 6.535e-6, 1.324e-4
0.218, 6.531e-6, 1.331e-4
0.217, 6.530e-6, 1.337e-4
0.216, 6.529e-6, 1.344e-4
0.215, 6.529e-6, 1.350e-4
0.214, 6.526e-6, 1.357e-4
0.213, 6.522e-6, 1.363e-4
0.212, 6.512e-6, 1.370e-4
0.211, 6.498e-6, 1.376e-4
0.210, 6.489e-6, 1.383e-4
0.209, 6.483e-6, 1.389e-4
0.208, 6.481e-6, 1.396e-4
0.207, 6.481e-6, 1.402e-4
0.206, 6.480e-6, 1.409e-4
0.205, 6.480e-6, 1.415e-4
0.204, 6.476e-6, 1.422e-4
0.203, 6.467e-6, 1.428e-4
0.202, 6.456e-6, 1.434e-4
0.201, 6.442e-6, 1.441e-4
0.200, 6.434e-6, 1.447e-4
0.199, 6.433e-6, 1.454e-4
0.198, 6.432e-6, 1.460e-4
0.197, 6.431e-6, 1.467e-4
0.196, 6.429e-6, 1.473e-4
0.195, 6.424e-6, 1.479e-4
0.194, 6.411e-6, 1.486e-4
0.193, 6.395e-6, 1.492e-4
0.192, 6.386e-6, 1.499e-4
0.191, 6.384e-6, 1.505e-4
0.190, 6.383e-6, 1.511e-4
0.189, 6.382e-6, 1.518e-4
0.188, 6.381e-6, 1.524e-4
0.187, 6.373e-6, 1.531e-4
0.186, 6.360e-6, 1.537e-4
0.185, 6.346e-6, 1.543e-4
0.184, 6.337e-6, 1.550e-4
0.183, 6.335e-6, 1.556e-4
0.182, 6.334e-6, 1.562e-4
0.181, 6.333e-6, 1.569e-4
0.180, 6.329e-6, 1.575e-4
0.179, 6.317e-6, 1.581e-4
0.178, 6.302e-6, 1.588e-4
0.177, 6.291e-6, 1.594e-4
0.176, 6.286e-6, 1.600e-4
0.175, 6.285e-6, 1.606e-4
0.174, 6.285e-6, 1.613e-4
0.173, 6.281e-6, 1.619e-4
0.172, 6.270e-6, 1.625e-4
0.171, 6.255e-6, 1.632e-4
0.170, 6.242e-6, 1.638e-4
0.169, 6.237e-6, 1.644e-4
0.168, 6.236e-6, 1.650e-4
0.167, 6.234e-6, 1.656e-4
0.166, 6.231e-6, 1.663e-4
0.165, 6.217e-6, 1.669e-4
0.164, 6.202e-6, 1.675e-4
0.163, 6.191e-6, 1.681e-4
0.162, 6.188e-6, 1.688e-4
0.161, 6.187e-6, 1.694e-4
0.160, 6.184e-6, 1.700e-4
0.159, 6.167e-6, 1.706e-4
0.158, 6.154e-6, 1.712e-4
0.157, 6.146e-6, 1.718e-4
0.156, 6.140e-6, 1.724e-4
0.155, 6.139e-6, 1.731e-4
0.154, 6.138e-6, 1.737e-4
0.153, 6.134e-6, 1.743e-4
0.152, 6.118e-6, 1.749e-4
0.151, 6.097e-6, 1.755e-4
0.150, 6.092e-6, 1.761e-4
0.149, 6.090e-6, 1.767e-4
0.148, 6.090e-6, 1.773e-4
0.147, 6.089e-6, 1.779e-4
0.146, 6.082e-6, 1.786e-4
0.145, 6.064e-6, 1.792e-4
0.144, 6.047e-6, 1.798e-4
0.143, 6.042e-6, 1.804e-4
0.142, 6.039e-6, 1.810e-4
0.141, 6.035e-6, 1.816e-4
0.140, 6.019e-6, 1.822e-4
0.139, 6.002e-6, 1.828e-4
0.138, 5.994e-6, 1.834e-4
0.137, 5.992e-6, 1.840e-4
0.136, 5.989e-6, 1.846e-4
0.135, 5.971e-6, 1.852e-4
0.134, 5.949e-6, 1.858e-4
0.133, 5.945e-6, 1.864e-4
0.132, 5.943e-6, 1.870e-4
0.131, 5.941e-6, 1.876e-4
0.130, 5.925e-6, 1.881e-4
0.129, 5.905e-6, 1.887e-4
0.128, 5.896e-6, 1.893e-4
0.127, 5.894e-6, 1.899e-4
0.126, 5.887e-6, 1.905e-4
0.125, 5.873e-6, 1.911e-4
0.124, 5.853e-6, 1.917e-4
0.123, 5.846e-6, 1.923e-4
0.122, 5.846e-6, 1.928e-4
0.121, 5.840e-6, 1.934e-4
0.120, 5.819e-6, 1.940e-4
0.119, 5.801e-6, 1.946e-4
0.118, 5.797e-6, 1.952e-4
0.117, 5.794e-6, 1.958e-4
0.116, 5.779e-6, 1.963e-4
0.115, 5.758e-6, 1.969e-4
0.114, 5.749e-6, 1.975e-4
0.113, 5.747e-6, 1.981e-4
0.112, 5.736e-6, 1.986e-4
0.111, 5.711e-6, 1.992e-4
0.110, 5.700e-6, 1.998e-4
0.109, 5.698e-6, 2.003e-4
0.108, 5.691e-6, 2.009e-4
0.107, 5.666e-6, 2.015e-4
0.106, 5.652e-6, 2.020e-4
0.105, 5.650e-6, 2.026e-4
0.104, 5.642e-6, 2.032e-4
0.103, 5.615e-6, 2.037e-4
0.102, 5.602e-6, 2.043e-4
0.101, 5.600e-6, 2.049e-4
0.100, 5.588e-6, 2.054e-4
0.099, 5.561e-6, 2.060e-4
0.098, 5.553e-6, 2.065e-4
0.097, 5.550e-6, 2.071e-4
0.096, 5.526e-6, 2.076e-4
0.095, 5.506e-6, 2.082e-4
0.094, 5.503e-6, 2.087e-4
0.093, 5.487e-6, 2.093e-4
0.092, 5.468e-6, 2.098e-4
0.091, 5.456e-6, 2.104e-4
0.090, 5.453e-6, 2.109e-4
0.089, 5.425e-6, 2.115e-4
0.088, 5.407e-6, 2.120e-4
0.087, 5.406e-6, 2.125e-4
0.086, 5.390e-6, 2.131e-4
0.085, 5.362e-6, 2.136e-4
0.084, 5.358e-6, 2.142e-4
0.083, 5.352e-6, 2.147e-4
0.082, 5.327e-6, 2.152e-4
0.081, 5.310e-6, 2.157e-4
0.080, 5.306e-6, 2.163e-4
0.079, 5.281e-6, 2.168e-4
0.078, 5.261e-6, 2.173e-4
0.077, 5.254e-6, 2.179e-4
0.076, 5.230e-6, 2.184e-4
0.075, 5.213e-6, 2.189e-4
0.074, 5.209e-6, 2.194e-4
0.073, 5.188e-6, 2.199e-4
0.072, 5.164e-6, 2.205e-4
0.071, 5.160e-6, 2.210e-4
0.070, 5.136e-6, 2.215e-4
0.069, 5.115e-6, 2.220e-4
0.068, 5.112e-6, 2.225e-4
0.067, 5.096e-6, 2.230e-4
0.066, 5.070e-6, 2.235e-4
0.065, 5.064e-6, 2.240e-4
0.064, 5.055e-6, 2.245e-4
0.063, 5.030e-6, 2.250e-4
0.062, 5.017e-6, 2.255e-4
0.061, 5.013e-6, 2.260e-4
0.060, 4.987e-6, 2.265e-4
0.059, 4.970e-6, 2.270e-4
0.058, 4.966e-6, 2.275e-4
0.057, 4.956e-6, 2.280e-4
0.056, 4.930e-6, 2.285e-4
0.055, 4.919e-6, 2.290e-4
0.054, 4.915e-6, 2.295e-4
0.053, 4.891e-6, 2.300e-4
0.052, 4.871e-6, 2.305e-4
0.051, 4.869e-6, 2.310e-4
0.050, 4.863e-6, 2.315e-4
0.049, 4.839e-6, 2.319e-4
0.048, 4.822e-6, 2.324e-4
0.047, 4.819e-6, 2.329e-4
0.046, 4.806e-6, 2.334e-4
0.045, 4.781e-6, 2.339e-4
0.044, 4.771e-6, 2.343e-4
0.043, 4.768e-6, 2.348e-4
0.042, 4.745e-6, 2.353e-4
0.041, 4.725e-6, 2.358e-4
0.040, 4.722e-6, 2.362e-4
0.039, 4.717e-6, 2.367e-4
0.038, 4.697e-6, 2.372e-4
0.037, 4.678e-6, 2.376e-4
0.036, 4.674e-6, 2.381e-4
0.035, 4.672e-6, 2.386e-4
0.034, 4.662e-6, 2.391e-4
0.033, 4.640e-6, 2.395e-4
0.032, 4.628e-6, 2.400e-4
0.031, 4.625e-6, 2.404e-4
0.030, 4.623e-6, 2.409e-4
0.029, 4.614e-6, 2.414e-4
0.028, 4.598e-6, 2.418e-4
0.027, 4.581e-6, 2.423e-4
0.026, 4.577e-6, 2.427e-4
0.025, 4.576e-6, 2.432e-4
0.024, 4.574e-6, 2.437e-4
0.023, 4.564e-6, 2.441e-4
0.022, 4.547e-6, 2.446e-4
0.021, 4.535e-6, 2.450e-4
0.020, 4.528e-6, 2.455e-4
0.019, 4.527e-6, 2.459e-4
0.018, 4.527e-6, 2.464e-4
0.017, 4.527e-6, 2.468e-4
0.016, 4.524e-6, 2.473e-4
0.015, 4.520e-6, 2.477e-4
0.014, 4.514e-6, 2.482e-4
0.013, 4.503e-6, 2.486e-4
0.012, 4.491e-6, 2.491e-4
0.011, 4.483e-6, 2.495e-4
0.010, 4.484e-6, 2.500e-4
0.009, 4.481e-6, 2.504e-4
0.008, 4.480e-6, 2.509e-4
0.007, 4.479e-6, 2.513e-4
0.006, 4.479e-6, 2.518e-4
0.005, 4.478e-6, 2.522e-4
0.004, 4.478e-6, 2.527e-4
0.003, 4.476e-6, 2.531e-4
0.002, 4.477e-6, 2.536e-4
0.001, 4.476e-6, 2.540e-4
-0.000, 4.475e-6, 2.545e-4
-0.001, 4.474e-6, 2.549e-4
-0.002, 4.470e-6, 2.554e-4
-0.003, 4.468e-6, 2.558e-4
-0.004, 4.464e-6, 2.562e-4
-0.005, 4.453e-6, 2.567e-4
-0.006, 4.455e-6, 2.571e-4
-0.007, 4.459e-6, 2.576e-4
-0.008, 4.455e-6, 2.580e-4
-0.009, 4.453e-6, 2.585e-4
-0.010, 4.450e-6, 2.589e-4
-0.011, 4.448e-6, 2.594e-4
-0.012, 4.443e-6, 2.598e-4
-0.013, 4.438e-6, 2.603e-4
-0.014, 4.439e-6, 2.607e-4
-0.015, 4.441e-6, 2.611e-4
-0.016, 4.442e-6, 2.616e-4
-0.017, 4.443e-6, 2.620e-4
-0.018, 4.440e-6, 2.625e-4
-0.019, 4.438e-6, 2.629e-4
-0.020, 4.436e-6, 2.634e-4
-0.021, 4.434e-6, 2.638e-4
-0.022, 4.432e-6, 2.642e-4
-0.023, 4.436e-6, 2.647e-4
-0.024, 4.437e-6, 2.651e-4
-0.025, 4.437e-6, 2.656e-4
-0.026, 4.435e-6, 2.660e-4
-0.027, 4.436e-6, 2.665e-4
-0.028, 4.437e-6, 2.669e-4
-0.029, 4.436e-6, 2.674e-4
-0.030, 4.433e-6, 2.678e-4
-0.031, 4.440e-6, 2.682e-4
-0.032, 4.441e-6, 2.687e-4
-0.033, 4.443e-6, 2.691e-4
-0.034, 4.444e-6, 2.696e-4
-0.035, 4.446e-6, 2.700e-4
-0.036, 4.446e-6, 2.705e-4
-0.037, 4.443e-6, 2.709e-4
-0.038, 4.443e-6, 2.714e-4
-0.039, 4.450e-6, 2.718e-4
-0.040, 4.453e-6, 2.722e-4
-0.041, 4.456e-6, 2.727e-4
-0.042, 4.460e-6, 2.731e-4
-0.043, 4.459e-6, 2.736e-4
-0.044, 4.460e-6, 2.740e-4
-0.045, 4.460e-6, 2.745e-4
-0.046, 4.457e-6, 2.749e-4
-0.047, 4.463e-6, 2.754e-4
-0.048, 4.472e-6, 2.758e-4
-0.049, 4.473e-6, 2.763e-4
-0.050, 4.475e-6, 2.767e-4
-0.051, 4.474e-6, 2.772e-4
-0.052, 4.476e-6, 2.776e-4
-0.053, 4.476e-6, 2.780e-4
-0.054, 4.475e-6, 2.785e-4
-0.055, 4.475e-6, 2.789e-4
-0.056, 4.478e-6, 2.794e-4
-0.057, 4.478e-6, 2.798e-4
-0.058, 4.478e-6, 2.803e-4
-0.059, 4.478e-6, 2.807e-4
-0.060, 4.478e-6, 2.812e-4
-0.061, 4.478e-6, 2.816e-4
-0.062, 4.478e-6, 2.821e-4
-0.063, 4.478e-6, 2.825e-4
-0.064, 4.479e-6, 2.830e-4
-0.065, 4.479e-6, 2.834e-4
-0.066, 4.479e-6, 2.839e-4
-0.067, 4.479e-6, 2.843e-4
-0.068, 4.479e-6, 2.848e-4
-0.069, 4.479e-6, 2.852e-4
-0.070, 4.479e-6, 2.857e-4
-0.071, 4.479e-6, 2.861e-4
-0.072, 4.480e-6, 2.866e-4
-0.073, 4.483e-6, 2.870e-4
-0.074, 4.484e-6, 2.875e-4
-0.075, 4.485e-6, 2.879e-4
-0.076, 4.486e-6, 2.883e-4
-0.077, 4.487e-6, 2.888e-4
-0.078, 4.490e-6, 2.892e-4
-0.079, 4.487e-6, 2.897e-4
-0.080, 4.497e-6, 2.901e-4
-0.081, 4.507e-6, 2.906e-4
-0.082, 4.508e-6, 2.910e-4
-0.083, 4.512e-6, 2.915e-4
-0.084, 4.517e-6, 2.919e-4
-0.085, 4.517e-6, 2.924e-4
-0.086, 4.517e-6, 2.929e-4
-0.087, 4.517e-6, 2.933e-4
-0.088, 4.519e-6, 2.938e-4
-0.089, 4.525e-6, 2.942e-4
-0.090, 4.526e-6, 2.947e-4
-0.091, 4.526e-6, 2.951e-4
-0.092, 4.527e-6, 2.956e-4
-0.093, 4.526e-6, 2.960e-4
-0.094, 4.527e-6, 2.965e-4
-0.095, 4.527e-6, 2.969e-4
-0.096, 4.527e-6, 2.974e-4
-0.097, 4.527e-6, 2.978e-4
-0.098, 4.527e-6, 2.983e-4
-0.099, 4.527e-6, 2.987e-4
-0.100, 4.527e-6, 2.992e-4
-0.101, 4.528e-6, 2.996e-4
-0.102, 4.528e-6, 3.001e-4
-0.103, 4.527e-6, 3.005e-4
-0.104, 4.527e-6, 3.010e-4
-0.105, 4.528e-6, 3.015e-4
-0.106, 4.528e-6, 3.019e-4
-0.107, 4.528e-6, 3.024e-4
-0.108, 4.529e-6, 3.028e-4
-0.109, 4.529e-6, 3.033e-4
-0.110, 4.529e-6, 3.037e-4
-0.111, 4.528e-6, 3.042e-4
-0.112, 4.528e-6, 3.046e-4
-0.113, 4.530e-6, 3.051e-4
-0.114, 4.529e-6, 3.055e-4
-0.115, 4.532e-6, 3.060e-4
-0.116, 4.531e-6, 3.064e-4
-0.117, 4.530e-6, 3.069e-4
-0.118, 4.531e-6, 3.073e-4
-0.119, 4.531e-6, 3.078e-4
-0.120, 4.528e-6, 3.082e-4
-0.121, 4.529e-6, 3.087e-4
-0.122, 4.531e-6, 3.092e-4
-0.123, 4.531e-6, 3.096e-4
-0.124, 4.532e-6, 3.101e-4
-0.125, 4.531e-6, 3.105e-4
-0.126, 4.532e-6, 3.110e-4
-0.127, 4.532e-6, 3.114e-4
-0.128, 4.528e-6, 3.119e-4
-0.129, 4.531e-6, 3.123e-4
-0.130, 4.534e-6, 3.128e-4
-0.131, 4.533e-6, 3.132e-4
-0.132, 4.536e-6, 3.137e-4
-0.133, 4.537e-6, 3.141e-4
-0.134, 4.536e-6, 3.146e-4
-0.135, 4.536e-6, 3.150e-4
-0.136, 4.537e-6, 3.155e-4
-0.137, 4.537e-6, 3.160e-4
-0.138, 4.543e-6, 3.164e-4
-0.139, 4.548e-6, 3.169e-4
-0.140, 4.553e-6, 3.173e-4
-0.141, 4.554e-6, 3.178e-4
-0.142, 4.552e-6, 3.182e-4
-0.143, 4.555e-6, 3.187e-4
-0.144, 4.550e-6, 3.191e-4
-0.145, 4.550e-6, 3.196e-4
-0.146, 4.562e-6, 3.200e-4
-0.147, 4.565e-6, 3.205e-4
-0.148, 4.568e-6, 3.210e-4
-0.149, 4.565e-6, 3.214e-4
-0.150, 4.570e-6, 3.219e-4
-0.151, 4.570e-6, 3.223e-4
-0.152, 4.569e-6, 3.228e-4
-0.153, 4.569e-6, 3.232e-4
-0.154, 4.574e-6, 3.237e-4
-0.155, 4.574e-6, 3.242e-4
-0.156, 4.575e-6, 3.246e-4
-0.157, 4.576e-6, 3.251e-4
-0.158, 4.576e-6, 3.255e-4
-0.159, 4.576e-6, 3.260e-4
-0.160, 4.576e-6, 3.264e-4
-0.161, 4.576e-6, 3.269e-4
-0.162, 4.576e-6, 3.274e-4
-0.163, 4.576e-6, 3.278e-4
-0.164, 4.577e-6, 3.283e-4
-0.165, 4.577e-6, 3.287e-4
-0.166, 4.578e-6, 3.292e-4
-0.167, 4.582e-6, 3.297e-4
-0.168, 4.583e-6, 3.301e-4
-0.169, 4.582e-6, 3.306e-4
-0.170, 4.586e-6, 3.310e-4
-0.171, 4.595e-6, 3.315e-4
-0.172, 4.601e-6, 3.319e-4
-0.173, 4.606e-6, 3.324e-4
-0.174, 4.610e-6, 3.329e-4
-0.175, 4.612e-6, 3.333e-4
-0.176, 4.614e-6, 3.338e-4
-0.177, 4.614e-6, 3.343e-4
-0.178, 4.618e-6, 3.347e-4
-0.179, 4.619e-6, 3.352e-4
-0.180, 4.623e-6, 3.356e-4
-0.181, 4.624e-6, 3.361e-4
-0.182, 4.625e-6, 3.366e-4
-0.183, 4.625e-6, 3.370e-4
-0.184, 4.625e-6, 3.375e-4
-0.185, 4.625e-6, 3.380e-4
-0.186, 4.625e-6, 3.384e-4
-0.187, 4.626e-6, 3.389e-4
-0.188, 4.626e-6, 3.393e-4
-0.189, 4.627e-6, 3.398e-4
-0.190, 4.629e-6, 3.403e-4
-0.191, 4.631e-6, 3.407e-4
-0.192, 4.634e-6, 3.412e-4
-0.193, 4.637e-6, 3.417e-4
-0.194, 4.633e-6, 3.421e-4
-0.195, 4.646e-6, 3.426e-4
-0.196, 4.651e-6, 3.430e-4
-0.197, 4.653e-6, 3.435e-4
-0.198, 4.663e-6, 3.440e-4
-0.199, 4.669e-6, 3.444e-4
-0.200, 4.669e-6, 3.449e-4
-0.201, 4.670e-6, 3.454e-4
-0.202, 4.671e-6, 3.458e-4
-0.203, 4.673e-6, 3.463e-4
-0.204, 4.674e-6, 3.468e-4
-0.205, 4.676e-6, 3.473e-4
-0.206, 4.676e-6, 3.477e-4
-0.207, 4.676e-6, 3.482e-4
-0.208, 4.677e-6, 3.487e-4
-0.209, 4.680e-6, 3.491e-4
-0.210, 4.677e-6, 3.496e-4
-0.211, 4.681e-6, 3.501e-4
-0.212, 4.690e-6, 3.505e-4
-0.213, 4.694e-6, 3.510e-4
-0.214, 4.704e-6, 3.515e-4
-0.215, 4.704e-6, 3.519e-4
-0.216, 4.710e-6, 3.524e-4
-0.217, 4.713e-6, 3.529e-4
-0.218, 4.715e-6, 3.534e-4
-0.219, 4.717e-6, 3.538e-4
-0.220, 4.721e-6, 3.543e-4
-0.221, 4.722e-6, 3.548e-4
-0.222, 4.722e-6, 3.552e-4
-0.223, 4.722e-6, 3.557e-4
-0.224, 4.722e-6, 3.562e-4
-0.225, 4.722e-6, 3.567e-4
-0.226, 4.723e-6, 3.571e-4
-0.227, 4.723e-6, 3.576e-4
-0.228, 4.723e-6, 3.581e-4
-0.229, 4.723e-6, 3.585e-4
-0.230, 4.724e-6, 3.590e-4
-0.231, 4.723e-6, 3.595e-4
-0.232, 4.724e-6, 3.600e-4
-0.233, 4.724e-6, 3.604e-4
-0.234, 4.725e-6, 3.609e-4
-0.235, 4.724e-6, 3.614e-4
-0.236, 4.724e-6, 3.619e-4
-0.237, 4.726e-6, 3.623e-4
-0.238, 4.729e-6, 3.628e-4
-0.239, 4.729e-6, 3.633e-4
-0.240, 4.727e-6, 3.637e-4
-0.241, 4.731e-6, 3.642e-4
-0.242, 4.730e-6, 3.647e-4
-0.243, 4.731e-6, 3.652e-4
-0.244, 4.737e-6, 3.656e-4
-0.245, 4.737e-6, 3.661e-4
-0.246, 4.741e-6, 3.666e-4
-0.247, 4.748e-6, 3.671e-4
-0.248, 4.748e-6, 3.675e-4
-0.249, 4.750e-6, 3.680e-4
-0.250, 4.744e-6, 3.685e-4
-0.251, 4.747e-6, 3.690e-4
-0.252, 4.755e-6, 3.694e-4
-0.253, 4.760e-6, 3.699e-4
-0.254, 4.763e-6, 3.704e-4
-0.255, 4.761e-6, 3.709e-4
-0.256, 4.763e-6, 3.713e-4
-0.257, 4.762e-6, 3.718e-4
-0.258, 4.762e-6, 3.723e-4
-0.259, 4.756e-6, 3.728e-4
-0.260, 4.753e-6, 3.732e-4
-0.261, 4.761e-6, 3.737e-4
-0.262, 4.761e-6, 3.742e-4
-0.263, 4.761e-6, 3.747e-4
-0.264, 4.757e-6, 3.751e-4
-0.265, 4.760e-6, 3.756e-4
-0.266, 4.754e-6, 3.761e-4
-0.267, 4.751e-6, 3.766e-4
-0.268, 4.748e-6, 3.770e-4
-0.269, 4.758e-6, 3.775e-4
-0.270, 4.750e-6, 3.780e-4
-0.271, 4.757e-6, 3.785e-4
-0.272, 4.750e-6, 3.789e-4
-0.273, 4.749e-6, 3.794e-4
-0.274, 4.740e-6, 3.799e-4
-0.275, 4.738e-6, 3.804e-4
-0.276, 4.731e-6, 3.808e-4
-0.277, 4.732e-6, 3.813e-4
-0.278, 4.732e-6, 3.818e-4
-0.279, 4.737e-6, 3.823e-4
-0.280, 4.729e-6, 3.827e-4
-0.281, 4.729e-6, 3.832e-4
-0.282, 4.727e-6, 3.837e-4
-0.283, 4.727e-6, 3.842e-4
-0.284, 4.725e-6, 3.846e-4
-0.285, 4.727e-6, 3.851e-4
-0.286, 4.730e-6, 3.856e-4
-0.287, 4.733e-6, 3.860e-4
-0.288, 4.731e-6, 3.865e-4
-0.289, 4.731e-6, 3.870e-4
-0.290, 4.736e-6, 3.875e-4
-0.291, 4.736e-6, 3.879e-4
-0.292, 4.738e-6, 3.884e-4
-0.293, 4.742e-6, 3.889e-4
-0.294, 4.759e-6, 3.894e-4
-0.295, 4.767e-6, 3.898e-4
-0.296, 4.771e-6, 3.903e-4
-0.297, 4.771e-6, 3.908e-4
-0.298, 4.772e-6, 3.913e-4
-0.299, 4.773e-6, 3.917e-4
